time x0G u y0G v psi r delta 
[s] [m] [m/s] [m] [m/s] [deg] [deg/s] [deg/s] [deg] 
0.000000 0.000000 1.086813 0.000000 0.000000 0.000000 0.000000 0.000000
0.096950 0.106213 1.086813 -0.012219 0.000000 -0.030000 0.009489 0.000000
0.193900 0.223704 1.089720 -0.007519 0.000000 -0.050000 0.056730 1.140003
0.290850 0.325218 1.088751 -0.012219 0.000000 -0.070000 0.122847 4.030002
0.387800 0.447409 1.091660 -0.015979 0.000000 -0.080000 0.264466 7.079982
0.484750 0.548921 1.093598 -0.020679 0.000000 -0.070000 0.406084 9.969981
0.581702 0.661713 1.092628 -0.007519 0.000000 -0.050000 0.585558 12.989985
0.678652 0.776384 1.091660 -0.015979 0.000000 0.000000 0.755542 14.890027
0.775602 0.891060 1.090690 -0.023498 0.000000 0.050000 0.906651 15.169974
0.872552 0.995390 1.090690 -0.015039 0.000000 0.130000 1.057759 15.109986
0.969502 1.110061 1.092628 -0.023498 0.000000 0.210000 1.171015 15.019974
1.066452 1.220035 1.094569 -0.023498 0.000000 0.300000 1.284371 14.999978
1.163402 1.329066 1.096507 -0.023498 0.000000 0.410000 1.388238 14.990008
1.260352 1.436219 1.097477 -0.036657 0.000000 0.520000 1.501595 14.990008
1.357302 1.553712 1.101354 -0.031958 0.000000 0.649998 1.671579 14.990008
1.454252 1.659925 1.101354 -0.044177 0.000000 0.799998 1.822688 14.990008
1.551204 1.782115 1.101354 -0.047937 0.000000 0.960002 2.002058 14.990008
1.648154 1.887389 1.101354 -0.039477 0.000000 1.140003 2.143676 14.990008
1.745104 2.002060 1.101354 -0.047937 0.000000 1.330001 2.266523 14.999978
1.842054 2.111091 1.101354 -0.047937 0.000000 1.529998 2.360902 14.999978
1.939004 2.221065 1.105233 -0.047937 0.000000 1.739998 2.464769 14.999978
2.035963 2.330096 1.106201 -0.047937 0.000000 1.949999 2.540377 14.999978
2.132905 2.448529 1.107172 -0.042297 0.000000 2.180001 2.606492 14.999978
2.229846 2.562261 1.107172 -0.050756 0.000000 2.409998 2.681995 14.999978
2.326809 2.672235 1.107172 -0.050756 0.000000 2.649999 2.795352 14.999978
2.423751 2.782206 1.110080 -0.050756 0.000000 2.899997 2.918094 14.999978
2.520713 2.895938 1.107172 -0.058276 0.000000 3.169998 3.050341 14.999978
2.617655 3.010609 1.107172 -0.066735 0.000000 3.439998 3.182560 14.999978
2.714597 3.115882 1.106201 -0.058276 0.000000 3.730001 3.286438 14.999978
2.811559 3.229614 1.109110 -0.066735 0.000000 4.030002 3.390287 14.999978
2.908501 3.339589 1.111050 -0.066735 0.000000 4.340001 3.437540 14.999978
3.005463 3.452381 1.112019 -0.053576 0.000000 4.640001 3.465796 14.999978
3.102405 3.574572 1.112989 -0.057336 0.000000 4.950000 3.484681 14.999978
3.199367 3.679845 1.112019 -0.048876 0.000000 5.259999 3.513050 14.999978
3.296309 3.794516 1.111050 -0.057336 0.000000 5.580002 3.579159 14.999978
3.393251 3.903547 1.112019 -0.057336 0.000000 5.910002 3.645268 14.999978
3.490213 4.016340 1.110080 -0.044177 0.000000 6.229999 3.692521 14.999978
3.587155 4.131015 1.109110 -0.051697 0.000000 6.569992 3.730262 14.999978
3.684117 4.235333 1.109110 -0.044177 0.000000 6.900016 3.749146 14.999978
3.781059 4.350033 1.108142 -0.051697 0.000000 7.240009 3.768002 14.999978
3.878001 4.467493 1.109110 -0.046997 0.000000 7.580002 3.796371 14.999978
3.974963 4.572800 1.112019 -0.039477 0.000000 7.919996 3.843511 14.999978
4.071905 4.690260 1.112019 -0.033838 0.000000 8.259989 3.843511 14.999978
4.168867 4.803065 1.112989 -0.021618 0.000000 8.610009 3.900249 14.999978
4.265809 4.913027 1.113957 -0.021618 0.000000 8.969998 3.947502 14.999978
4.362751 5.030529 1.114927 -0.015979 0.000000 9.320018 3.994614 14.999978
4.459713 5.134847 1.114927 -0.008459 0.000000 9.689977 4.070236 14.999978
4.556655 5.253296 1.112019 -0.003760 0.000000 10.059993 4.107976 14.999978
4.653617 5.357614 1.112989 0.003760 0.000000 10.430009 4.155230 14.999978
4.750559 5.475115 1.112019 0.008459 0.000000 10.809995 4.211854 14.999978
4.847501 5.580381 1.112019 0.016919 0.000000 11.189980 4.240223 14.999978
4.944463 5.693186 1.111050 0.029138 0.000000 11.579993 4.287448 14.999978
5.041405 5.797503 1.110080 0.037597 0.000000 11.959978 4.277964 14.999978
5.138367 5.915005 1.112019 0.042297 0.000000 12.349991 4.325217 14.999978
5.235309 6.020270 1.112989 0.050756 0.000000 12.749973 4.334588 14.999978
5.332271 6.141521 1.112019 0.068615 0.000000 13.139985 4.381842 14.999978
5.429213 6.241183 1.112989 0.084594 0.000000 13.540024 4.438466 14.999978
5.526155 6.358644 1.112989 0.089294 0.000000 13.949975 4.504576 14.999978
5.623117 6.475198 1.112019 0.114672 0.000000 14.359984 4.561313 14.999978
5.720059 6.579557 1.110080 0.123132 0.000000 14.780019 4.617938 14.999978
5.817022 6.696111 1.108142 0.148510 0.000000 15.199997 4.646307 14.999978
5.913963 6.805125 1.107172 0.148510 0.000000 15.630002 4.646307 14.999978
6.010905 6.921679 1.104263 0.174828 0.000000 16.049980 4.646307 14.999978
6.107868 7.030694 1.107172 0.174828 0.000000 16.470016 4.627422 14.999978
6.204809 7.138802 1.110080 0.195506 0.000000 16.889994 4.617938 14.999978
6.301772 7.251607 1.107172 0.208666 0.000000 17.309972 4.599054 14.999978
6.398714 7.359674 1.109110 0.229344 0.000000 17.719980 4.599054 14.999978
6.495655 7.472479 1.107172 0.242503 0.000000 18.140016 4.617938 14.999978
6.592618 7.575890 1.108142 0.271641 0.000000 18.570021 4.655678 14.999978
6.689560 7.688654 1.108142 0.284800 0.000000 18.989999 4.731300 14.999978
6.786522 7.804260 1.105233 0.310178 0.000000 19.429973 4.787925 14.999978
6.883464 7.900132 1.103293 0.334617 0.000000 19.870004 4.844550 14.999978
6.980426 8.012937 1.104263 0.347776 0.000000 20.309979 4.844550 14.999978
7.077368 8.112558 1.104263 0.363755 0.000000 20.750010 4.844550 14.999978
7.174310 8.233809 1.104263 0.381613 0.000000 21.189985 4.825666 14.999978
7.271272 8.336272 1.105233 0.410751 0.000000 21.630016 4.825666 14.999978
7.368214 8.444380 1.104263 0.431431 0.000000 22.069990 4.854034 14.999978
7.465176 8.552447 1.103293 0.452109 0.000000 22.519992 4.901288 14.999978
7.562118 8.663357 1.104263 0.485947 0.000000 22.969993 4.967397 14.999978
7.659060 8.768663 1.103293 0.494405 0.000000 23.430020 5.024022 14.999978
7.756022 8.879573 1.100386 0.528242 0.000000 23.889991 5.042906 14.999978
7.852964 8.978247 1.097477 0.564902 0.000000 24.350019 5.042906 14.999978
7.949926 9.089156 1.097477 0.598739 0.000000 24.809989 5.061762 14.999978
8.046868 9.189725 1.098446 0.615656 0.000000 25.270017 5.052390 14.999978
8.143810 9.300634 1.097477 0.649493 0.000000 25.729988 5.071275 14.999978
8.240772 9.408743 1.100386 0.670171 0.000000 26.199985 5.080646 14.999978
8.337714 9.519652 1.098446 0.704013 0.000000 26.669982 5.127900 14.999978
8.434676 9.618367 1.097477 0.740668 0.000000 27.139979 5.156268 14.999978
8.531618 9.720789 1.098446 0.769805 0.000000 27.609977 5.165640 14.999978
8.628560 9.828897 1.094569 0.791426 0.000000 28.079974 5.165640 14.999978
8.725522 9.936058 1.095537 0.832783 0.000000 28.550029 5.175124 14.999978
8.822464 10.033784 1.096507 0.870377 0.000000 29.020026 5.127900 14.999978
8.919426 10.139997 1.091660 0.911738 0.000000 29.490023 5.127900 14.999978
9.016368 10.243408 1.093598 0.940874 0.000000 29.960020 5.137384 14.999978
9.113330 10.342081 1.093598 0.978473 0.000000 30.439987 5.194009 14.999978
9.210272 10.453032 1.093598 1.012310 0.000000 30.909984 5.194009 14.999978
9.307214 10.551706 1.092628 1.048966 0.000000 31.390008 5.250634 14.999978
9.404176 10.654169 1.088751 1.078106 0.000000 31.880002 5.279002 14.999978
9.501118 10.752843 1.088751 1.114762 0.000000 32.360026 5.279002 14.999978
9.598081 10.854359 1.086813 1.165520 0.000000 32.839993 5.231749 14.999978
9.695022 10.953074 1.084872 1.202175 0.000000 33.320017 5.194009 14.999978
9.791964 11.054590 1.085843 1.251994 0.000000 33.790014 5.184524 14.999978
9.888927 11.157012 1.084872 1.281131 0.000000 34.260011 5.194009 14.999978
9.985868 11.251030 1.084872 1.326248 0.000000 34.739978 5.241234 14.999978
10.082831 11.344059 1.082934 1.371366 0.000000 35.229972 5.307371 14.999978
10.179773 11.445575 1.083904 1.421181 0.000000 35.720022 5.373368 14.999978
10.276714 11.544290 1.080025 1.458780 0.000000 36.210016 5.392365 14.999978
10.373677 11.641109 1.078087 1.517053 0.000000 36.709979 5.392365 14.999978
10.470619 11.734138 1.079055 1.562170 0.000000 37.199972 5.382852 14.999978
10.567581 11.828156 1.079055 1.607288 0.000000 37.690023 5.363996 14.999978
10.664523 11.921185 1.080025 1.652406 0.000000 38.189986 5.373368 14.999978
10.761485 12.033042 1.077117 1.686243 0.000000 38.679980 5.401736 14.999978
10.858427 12.126112 1.074208 1.731361 0.000000 39.180000 5.420621 14.999978
10.955369 12.214445 1.075178 1.783994 0.000000 39.680020 5.439505 14.999978
11.052331 12.308462 1.074208 1.829112 0.000000 40.170014 5.420621 14.999978
11.149273 12.405241 1.073240 1.887389 0.000000 40.669977 5.430105 14.999978
11.246235 12.493614 1.074208 1.940965 0.000000 41.169997 5.392365 14.999978
11.343177 12.581946 1.071299 1.993602 0.000000 41.659990 5.382852 14.999978
11.440119 12.671267 1.071299 2.047178 0.000000 42.160011 5.392365 14.999978
11.537081 12.772783 1.071299 2.096992 0.000000 42.659974 5.401736 14.999978
11.634023 12.861116 1.068391 2.150569 0.000000 43.179990 5.439505 14.999978
11.730985 12.944792 1.067422 2.211668 0.000000 43.709976 5.486730 14.999978
11.827927 13.033125 1.068391 2.265244 0.000000 44.249989 5.505614 14.999978
11.924869 13.122446 1.067422 2.317881 0.000000 44.779975 5.477358 14.999978
12.021831 13.210778 1.066452 2.371457 0.000000 45.330014 5.467846 14.999978
12.118773 13.302900 1.065482 2.437249 0.000000 45.870027 5.448990 14.999978
12.215735 13.383734 1.064514 2.486128 0.000000 46.420009 5.411221 14.999978
12.312677 13.474909 1.062575 2.551924 0.000000 46.960022 5.401736 14.999978
12.409619 13.551046 1.065482 2.608318 0.000000 47.510004 5.401736 14.999978
12.506581 13.647866 1.067422 2.666595 0.000000 48.059986 5.401736 14.999978
12.603523 13.718359 1.061605 2.730508 0.000000 48.610026 5.420621 14.999978
12.700485 13.810440 1.060635 2.797244 0.000000 49.169977 5.467846 14.999978
12.797427 13.886577 1.057726 2.853642 0.000000 49.729986 5.496214 14.999978
12.894389 13.970254 1.053849 2.914737 0.000000 50.300022 5.515099 14.999978
12.991331 14.053889 1.051909 2.975832 0.000000 50.870001 5.515099 14.999978
13.088273 14.137566 1.050941 3.036927 0.000000 51.430009 5.515099 14.999978
13.185235 14.213703 1.049971 3.093326 0.000000 51.999988 5.524470 14.999978
13.282177 14.300181 1.049002 3.167580 0.000000 52.570024 5.515099 14.999978
13.379139 14.371580 1.049002 3.232437 0.000000 53.129975 5.515099 14.999978
13.476081 14.458059 1.048032 3.306691 0.000000 53.700011 5.515099 14.999978
13.573023 14.542683 1.047062 3.367786 0.000000 54.269989 5.515099 14.999978
13.669985 14.613176 1.045123 3.432643 0.000000 54.829998 5.533983 14.999978
13.766927 14.696811 1.041245 3.493738 0.000000 55.399977 5.533983 14.999978
13.863890 14.768251 1.043185 3.557651 0.000000 55.970012 5.533983 14.999978
13.960831 14.841587 1.040276 3.635667 0.000000 56.530021 5.515099 14.999978
14.057773 14.912986 1.041245 3.699584 0.000000 57.089973 5.448990 14.999978
14.154736 15.000412 1.041245 3.773838 0.000000 57.640127 5.373368 14.999978
14.251677 15.057762 1.038338 3.841513 0.000000 58.190167 5.363996 14.999978
14.445582 15.203444 1.041245 3.983442 0.000000 59.299986 5.467846 14.999978
14.542523 15.276739 1.036397 4.060518 0.000000 59.870079 5.533983 14.999978
14.639486 15.348179 1.033489 4.125371 0.000000 60.429859 5.543355 14.999978
14.736428 15.429960 1.033489 4.208100 0.000000 60.999952 5.524470 14.999978
14.833390 15.496704 1.030580 4.280447 0.000000 61.559731 5.486730 14.999978
14.930332 15.554054 1.031550 4.348138 0.000000 62.109771 5.448990 14.999978
15.027294 15.628296 1.030580 4.425222 0.000000 62.659810 5.411221 14.999978
15.124236 15.695040 1.028642 4.497569 0.000000 63.209850 5.363996 14.999978
15.221178 15.760836 1.029612 4.570905 0.000000 63.759889 5.382852 14.999978
15.318140 15.821935 1.031550 4.650791 0.000000 64.309929 5.411221 14.999978
15.415082 15.887731 1.029612 4.723179 0.000000 64.859968 5.467846 14.999978
15.512044 15.954433 1.022824 4.796473 0.000000 65.419748 5.515099 14.999978
15.608986 16.010836 1.028642 4.884847 0.000000 65.980101 5.524470 14.999978
15.705928 16.084171 1.024765 4.961931 0.000000 66.539881 5.533983 14.999978
15.802890 16.142427 1.024765 5.029581 0.000000 67.100233 5.505614 14.999978
15.899832 16.203527 1.026703 5.110415 0.000000 67.650273 5.477358 14.999978
15.996794 16.257128 1.018947 5.186552 0.000000 68.210053 5.458361 14.999978
16.093736 16.313489 1.018947 5.274926 0.000000 68.749779 5.411221 14.999978
16.190678 16.374588 1.016039 5.355760 0.000000 69.299818 5.354511 14.999978
16.287640 16.440384 1.021856 5.428106 0.000000 69.829804 5.335627 14.999978
16.384582 16.496786 1.018947 5.516480 0.000000 70.370103 5.354511 14.999978
16.481544 16.550387 1.012160 5.592617 0.000000 70.920143 5.411221 14.999978
16.578486 16.611445 1.013130 5.673451 0.000000 71.470182 5.458361 14.999978
16.675448 16.665046 1.012160 5.748640 0.000000 72.020222 5.477358 14.999978
16.772390 16.721449 1.016039 5.837920 0.000000 72.559948 5.458361 14.999978
16.869332 16.774061 1.017977 5.913110 0.000000 73.109988 5.430105 14.999978
16.966294 16.818268 1.014098 6.005232 0.000000 73.649714 5.401736 14.999978
17.063236 16.879326 1.011192 6.086066 0.000000 74.190013 5.382852 14.999978
17.160198 16.927282 1.017977 6.169743 0.000000 74.729739 5.373368 14.999978
17.257140 16.983685 1.017977 6.258075 0.000000 75.270039 5.392365 14.999978
17.354082 17.024102 1.017977 6.337055 0.000000 75.809765 5.420621 14.999978
17.451044 17.085201 1.016039 6.417889 0.000000 76.350064 5.411221 14.999978
17.547986 17.129367 1.010221 6.509970 0.000000 76.889790 5.382852 14.999978
17.644948 17.168837 1.004404 6.588950 0.000000 77.419776 5.316743 14.999978
17.741890 17.225239 1.009251 6.677282 0.000000 77.949762 5.269518 14.999978
17.838832 17.274102 1.005374 6.760959 0.000000 78.470008 5.260118 14.999978
17.935794 17.309822 1.004404 6.848344 0.000000 78.990253 5.269518 14.999978
18.032736 17.357779 1.004404 6.932020 0.000000 79.520239 5.326227 14.999978
18.129699 17.400997 1.003434 7.024143 0.000000 80.059966 5.373368 14.999978
18.226641 17.449901 1.003434 7.107779 0.000000 80.600265 5.430105 14.999978
18.323582 17.493120 1.006343 7.199901 0.000000 81.139991 5.439505 14.999978
18.420545 17.520394 1.003434 7.281683 0.000000 81.669977 5.411221 14.999978
18.517487 17.563612 0.996648 7.373805 0.000000 82.210276 5.354511 14.999978
18.614449 17.599333 0.997619 7.461190 0.000000 82.729949 5.316743 14.999978
18.711391 17.648195 0.994710 7.544867 0.000000 83.250195 5.250634 14.999978
18.808353 17.691455 0.992770 7.636948 0.000000 83.769867 5.222378 14.999978
18.905295 17.727175 0.996648 7.723426 0.000000 84.290113 5.222378 14.999978
19.002237 17.761948 0.997619 7.810852 0.000000 84.809786 5.241234 14.999978
19.099199 17.806114 0.993740 7.902975 0.000000 85.330031 5.269518 14.999978
19.196141 17.833388 0.999557 7.984756 0.000000 85.850277 5.316743 14.999978
19.293103 17.871910 0.996648 8.085325 0.000000 86.380263 5.373368 14.999978
19.390045 17.901986 0.993740 8.180249 0.000000 86.910249 5.363996 14.999978
19.486987 17.934904 0.990831 8.254491 0.000000 87.429922 5.316743 14.999978
19.583949 17.964980 0.990831 8.349456 0.000000 87.950167 5.250634 14.999978
19.680891 18.009146 0.988893 8.441538 0.000000 88.469840 5.241234 14.999978
19.777853 18.036421 0.986954 8.523319 0.000000 88.990086 5.260118 14.999978
19.874795 18.066496 0.989861 8.618243 0.000000 89.509759 5.307371 14.999978
19.971737 18.084336 0.989861 8.716958 0.000000 90.030004 5.307371 14.999978
20.068699 18.111610 0.991801 8.798739 0.000000 90.550250 5.307371 14.999978
20.165641 18.142633 0.990831 8.894611 0.000000 91.069923 5.316743 14.999978
20.262603 18.172709 0.992770 8.989535 0.000000 91.590168 5.269518 14.999978
20.359626 18.190549 0.990831 9.087302 0.000000 92.100101 5.250634 14.999978
20.456446 18.217823 0.990831 9.169990 0.000000 92.619773 5.260118 14.999978
20.553469 18.248846 0.984046 9.264956 0.000000 93.130279 5.231749 14.999978
20.650493 18.258240 0.984046 9.357985 0.000000 93.649952 5.250634 14.999978
20.747313 18.293960 0.983075 9.445410 0.000000 94.159884 5.231749 14.999978
20.844336 18.316496 0.986954 9.535638 0.000000 94.669816 5.250634 14.999978
20.941156 18.339074 0.984046 9.625865 0.000000 95.190062 5.279002 14.999978
21.038179 18.356913 0.983075 9.724580 0.000000 95.699995 5.260118 14.999978
21.135202 18.386989 0.986954 9.819504 0.000000 96.209927 5.250634 14.999978
21.232022 18.397330 0.992770 9.912533 0.000000 96.730173 5.241234 14.999978
21.329045 18.414263 0.987922 10.011248 0.000000 97.240105 5.231749 14.999978
21.426068 18.429301 0.985984 10.096778 0.000000 97.750038 5.222378 14.999978
21.522888 18.451838 0.982105 10.187006 0.000000 98.259970 5.250634 14.999978
21.619912 18.461272 0.981137 10.280076 0.000000 98.769902 5.260118 14.999978
21.716935 18.470666 0.981137 10.374052 0.000000 99.279835 5.288374 14.999978
21.813755 18.488505 0.985014 10.472767 0.000000 99.800081 5.288374 14.999978
21.910778 18.498846 0.979196 10.565796 0.000000 100.310013 5.260118 14.999978
22.007801 18.512937 0.985014 10.651327 0.000000 100.819945 5.231749 14.999978
22.104621 18.530817 0.983075 10.750041 0.000000 101.329878 5.222378 14.999978
22.201644 18.540211 0.985984 10.843070 0.000000 101.830070 5.194009 14.999978
22.298464 18.542106 0.979196 10.931444 0.000000 102.340002 5.222378 14.999978
22.395487 18.551500 0.982105 11.025420 0.000000 102.849935 5.241234 14.999978
22.492510 18.574036 0.974349 11.115648 0.000000 103.350127 5.241234 14.999978
22.589331 18.578733 0.976288 11.217164 0.000000 103.860060 5.250634 14.999978
22.686354 18.580628 0.980167 11.305537 0.000000 104.369992 5.260118 14.999978
22.783377 18.590021 0.977258 11.399514 0.000000 104.879924 5.260118 14.999978
22.880197 18.587220 0.975320 11.496333 0.000000 105.389857 5.279002 14.999978
22.977220 18.605059 0.976288 11.594100 0.000000 105.899789 5.279002 14.999978
23.074243 18.603205 0.978228 11.670237 0.000000 106.399981 5.203380 14.999978
23.171063 18.607902 0.982105 11.771753 0.000000 106.909914 5.194009 14.999978
23.268086 18.617296 0.976288 11.864782 0.000000 107.410106 5.203380 14.999978
23.364906 18.619150 0.972411 11.954103 0.000000 107.920038 5.269518 14.999978
23.461929 18.615400 0.972411 12.050882 0.000000 108.429971 5.335627 14.999978
23.558953 18.612599 0.971441 12.146795 0.000000 108.950217 5.354511 14.999978
23.655773 18.619150 0.968532 12.227629 0.000000 109.460149 5.373368 14.999978
23.752796 18.615400 0.967564 12.324407 0.000000 109.979822 5.335627 14.999978
23.849819 18.612599 0.970472 12.421226 0.000000 110.480014 5.250634 14.999978
23.946639 18.601310 0.972411 12.513349 0.000000 110.980206 5.137384 14.999978
24.043662 18.598467 0.972411 12.610168 0.000000 111.470085 5.099531 14.999978
24.140685 18.594718 0.977258 12.706987 0.000000 111.950224 5.052390 14.999978
24.237505 18.596613 0.974349 12.795320 0.000000 112.440103 5.061762 14.999978
24.334528 18.592864 0.970472 12.892139 0.000000 112.929981 5.109015 14.999978
24.431551 18.581575 0.968532 12.984262 0.000000 113.419860 5.137384 14.999978
24.528372 18.583429 0.966594 13.072594 0.000000 113.920052 5.156268 14.999978
24.625395 18.576879 0.965623 13.156271 0.000000 114.420245 5.184524 14.999978
24.722215 18.560893 0.968532 13.255892 0.000000 114.919864 5.222378 14.999978
24.819238 18.549604 0.968532 13.348014 0.000000 115.420056 5.307371 14.999978
24.916261 18.529870 0.968532 13.435440 0.000000 115.939729 5.401736 14.999978
25.013081 18.527068 0.976288 13.532218 0.000000 116.459974 5.448990 14.999978
25.110104 18.520476 0.974349 13.615895 0.000000 116.980220 5.448990 14.999978
25.207127 18.509188 0.971441 13.708017 0.000000 117.499893 5.354511 14.999978
25.303947 18.493202 0.965623 13.807638 0.000000 118.009825 5.269518 14.999978
25.400970 18.477217 0.967564 13.907259 0.000000 118.510017 5.212893 14.999978
25.497994 18.466875 0.968532 13.978700 0.000000 118.999896 5.156268 14.999978
