time x0G u y0G v psi r delta 
[s] [m] [m/s] [m] [m/s] [rad] [rad/s] [rad/s] [rad] 
0.000000 0.000000 5.053440 0.000000 0.000000 0.000000 0.000000 0.000000
0.477641 -1.756690 5.062990 1.802310 0.000000 0.000000 0.001926 0.000000
0.955282 -3.193970 5.062990 3.627440 0.000000 0.000000 0.000000 0.030000
1.432920 -4.654070 5.053440 5.771970 0.000000 0.000000 0.021083 1.210001
1.910560 -5.931660 5.034340 7.779610 0.000000 0.000000 0.030672 4.100000
2.388200 -7.551460 5.039110 9.764430 0.000000 0.030000 0.044092 7.269975
2.865850 -8.988750 5.058220 11.589600 0.000000 0.060000 0.059417 10.459975
3.343490 -10.768300 5.072550 13.711300 0.000000 0.110000 0.086257 13.510001
3.821130 -12.045800 5.062990 15.718900 0.000000 0.170000 0.111172 15.069993
4.298770 -13.665600 5.077320 17.703700 0.000000 0.230000 0.136085 15.169974
4.776410 -15.125700 5.062990 19.848300 0.000000 0.310000 0.159094 15.089989
5.254050 -16.563000 5.077320 21.673400 0.000000 0.400000 0.182103 15.019974
5.731690 -17.840600 5.077320 23.681000 0.000000 0.500000 0.199355 14.999978
6.209330 -19.460400 5.086880 25.665900 0.000000 0.619998 0.231932 14.990008
6.686970 -21.057400 5.096430 27.650700 0.000000 0.750002 0.270266 14.990008
7.164610 -22.677200 5.105980 29.612700 0.000000 0.900002 0.299032 14.990008
7.642260 -23.977600 5.096430 31.939700 0.000000 1.060001 0.327778 14.990008
8.119900 -25.414900 5.096430 33.764900 0.000000 1.229997 0.356523 14.990008
8.597540 -27.034700 5.120310 35.749700 0.000000 1.420001 0.379532 14.990008
9.075180 -28.472000 5.105980 37.574800 0.000000 1.610000 0.402541 14.999978
9.552820 -30.251500 5.129860 39.719300 0.000000 1.810002 0.423624 14.999978
10.030500 -31.551900 5.134640 41.704200 0.000000 2.039999 0.458127 14.999978
10.508100 -33.148900 5.139420 43.689000 0.000000 2.280000 0.484967 14.999978
10.985700 -34.609000 5.148970 45.833500 0.000000 2.529998 0.519470 14.999978
11.463400 -35.932200 5.129860 48.160500 0.000000 2.790001 0.542458 14.999978
11.941000 -37.529200 5.129860 50.145400 0.000000 3.049998 0.555878 14.999978
12.418700 -38.966500 5.134640 51.970500 0.000000 3.310000 0.571224 14.999978
12.896300 -40.905700 5.139420 53.932500 0.000000 3.589999 0.576963 14.999978
13.373900 -42.343000 5.134640 55.757600 0.000000 3.859999 0.580790 14.999978
13.851600 -43.825900 5.148970 58.244400 0.000000 4.130000 0.588473 14.999978
14.329200 -45.263200 5.153750 60.069500 0.000000 4.430001 0.599967 14.999978
14.806900 -47.042700 5.153750 62.191200 0.000000 4.719998 0.613391 14.999978
15.284500 -48.479900 5.158520 64.016300 0.000000 5.019998 0.624885 14.999978
15.762200 -49.940000 5.158520 66.183700 0.000000 5.310001 0.644062 14.999978
16.239800 -51.559800 5.163300 68.145700 0.000000 5.620000 0.661314 14.999978
16.717400 -53.156800 5.158520 70.130500 0.000000 5.940025 0.668974 14.999978
17.195100 -54.776600 5.168080 72.115300 0.000000 6.269992 0.682393 14.999978
17.672700 -56.715800 5.177630 74.054500 0.000000 6.600015 0.693892 14.999978
18.150400 -57.993400 5.168080 76.062200 0.000000 6.929982 0.703478 14.999978
18.628000 -59.613200 5.177630 78.047000 0.000000 7.280002 0.714971 14.999978
19.105600 -61.210200 5.187180 80.031800 0.000000 7.619995 0.732223 14.999978
19.583300 -62.830000 5.191960 81.993800 0.000000 7.979984 0.745642 14.999978
20.060900 -64.290100 5.187180 84.161200 0.000000 8.350000 0.768652 14.999978
20.538600 -66.206500 5.191960 86.100400 0.000000 8.729986 0.791639 14.999978
21.016200 -67.803500 5.187180 87.765800 0.000000 9.109972 0.797397 14.999978
21.493800 -69.423300 5.182400 89.750600 0.000000 9.479988 0.806988 14.999978
21.971500 -71.020300 5.187180 91.712600 0.000000 9.859973 0.810815 14.999978
22.449100 -72.959500 5.177630 93.674700 0.000000 10.240016 0.799322 14.999978
22.926800 -74.533600 5.201510 95.340100 0.000000 10.609975 0.803155 14.999978
23.404400 -76.176300 5.201510 97.621500 0.000000 10.990018 0.805063 14.999978
23.882000 -77.773200 5.201510 99.606300 0.000000 11.370004 0.801230 14.999978
24.359700 -79.529900 5.211060 101.409000 0.000000 11.749989 0.816574 14.999978
24.837300 -81.149700 5.196730 103.393000 0.000000 12.129975 0.839561 14.999978
25.315000 -83.088900 5.201510 105.355000 0.000000 12.530014 0.856813 14.999978
25.792600 -84.845600 5.187180 107.158000 0.000000 12.920026 0.862571 14.999978
26.270300 -86.442600 5.191960 109.120000 0.000000 13.309981 0.877897 14.999978
26.747900 -88.541500 5.187180 110.899000 0.000000 13.710021 0.881748 14.999978
27.225500 -90.138500 5.191960 112.884000 0.000000 14.110002 0.895149 14.999978
27.703200 -91.895200 5.196730 114.686000 0.000000 14.500015 0.893247 14.999978
28.180800 -93.651800 5.211060 116.489000 0.000000 14.910023 0.895149 14.999978
28.658500 -95.591000 5.201510 118.451000 0.000000 15.299978 0.898999 14.939989
29.136100 -97.165200 5.196730 120.116000 0.000000 15.680021 0.897074 13.340004
29.613700 -99.241300 5.187180 121.896000 0.000000 16.080003 0.893247 10.170001
30.091400 -100.838000 5.187180 123.538000 0.000000 16.439993 0.870237 7.099978
30.569000 -102.618000 5.172850 125.683000 0.000000 16.810009 0.843394 3.920000
31.046700 -104.534000 5.163300 127.303000 0.000000 17.150002 0.818482 0.760000
31.524300 -106.610000 5.177630 129.082000 0.000000 17.480026 0.787811 -2.420002
32.001900 -108.344000 5.177630 130.565000 0.000000 17.800023 0.768652 -5.729979
32.479600 -110.238000 5.172850 132.208000 0.000000 18.089996 0.728390 -8.599982
32.957200 -111.994000 5.158520 134.010000 0.000000 18.350005 0.684301 -11.749989
33.434900 -114.093000 5.153750 135.789000 0.000000 18.579990 0.621052 -14.350014
33.912500 -115.987000 5.148970 137.409000 0.000000 18.780010 0.550120 -15.169974
34.390200 -117.903000 5.144190 139.052000 0.000000 18.939979 0.484967 -15.149978
34.867800 -119.797000 5.139420 140.672000 0.000000 19.100006 0.427455 -15.040028
35.345400 -121.873000 5.134640 142.451000 0.000000 19.219984 0.377606 -14.999978
35.823100 -123.766000 5.134640 143.774000 0.000000 19.329992 0.331609 -14.999978
36.300700 -125.843000 5.139420 145.554000 0.000000 19.400007 0.285612 -14.999978
36.778400 -128.055000 5.148970 146.831000 0.000000 19.459996 0.235763 -14.999978
37.256000 -130.109000 5.148970 148.292000 0.000000 19.490019 0.187840 -14.999978
37.733600 -131.865000 5.144190 150.094000 0.000000 19.490019 0.134180 -14.999978
38.211300 -133.942000 5.158520 151.873000 0.000000 19.470023 0.076669 -14.999978
38.688900 -135.972000 5.139420 153.014000 0.000000 19.420003 0.026840 -14.999978
39.166600 -137.888000 5.134640 154.657000 0.000000 19.360015 -0.021083 -14.999978
39.644200 -139.942000 5.139420 156.117000 0.000000 19.270003 -0.065175 -14.999978
40.121800 -142.018000 5.153750 157.896000 0.000000 19.170022 -0.107340 -14.999978
40.599500 -143.888000 5.158520 159.197000 0.000000 19.049987 -0.139937 -14.999978
41.077100 -146.124000 5.172850 160.817000 0.000000 18.930010 -0.162926 -14.999978
41.554800 -147.858000 5.187180 162.299000 0.000000 18.789979 -0.193597 -14.999978
42.032400 -150.094000 5.187180 163.896000 0.000000 18.630009 -0.220437 -14.999978
42.510000 -152.147000 5.196730 165.357000 0.000000 18.480009 -0.233858 -14.999978
42.987700 -154.337000 5.187180 166.634000 0.000000 18.310012 -0.258772 -14.999978
43.465300 -156.254000 5.191960 168.277000 0.000000 18.120019 -0.279854 -14.999978
43.943000 -158.467000 5.191960 169.874000 0.000000 17.930027 -0.308600 -14.999978
44.420600 -160.543000 5.191960 171.334000 0.000000 17.710011 -0.341198 -14.999978
44.898300 -162.619000 5.215840 173.113000 0.000000 17.480026 -0.381458 -14.999978
45.375900 -164.649000 5.206290 174.254000 0.000000 17.240014 -0.408277 -14.999978
45.853500 -166.862000 5.220620 175.851000 0.000000 16.989975 -0.429360 -14.999978
46.331200 -168.779000 5.234950 177.494000 0.000000 16.730024 -0.448538 -14.999978
46.808800 -170.672000 5.239720 179.136000 0.000000 16.459989 -0.471547 -14.999978
47.286500 -173.068000 5.230170 180.551000 0.000000 16.179984 -0.490703 -14.999978
47.764100 -174.938000 5.249270 181.874000 0.000000 15.899980 -0.509881 -14.999978
48.241700 -177.197000 5.244500 183.790000 0.000000 15.610006 -0.523301 -14.999978
48.719400 -178.931000 5.244500 185.273000 0.000000 15.310005 -0.530963 -14.999978
49.197000 -181.463000 5.239720 186.551000 0.000000 14.999978 -0.553973 -14.999978
49.674700 -183.334000 5.249270 187.851000 0.000000 14.679981 -0.571224 -14.999978
50.152300 -185.410000 5.254050 189.631000 0.000000 14.370011 -0.598042 -14.999978
50.629900 -187.463000 5.263600 191.091000 0.000000 14.039987 -0.601875 -14.999978
51.107600 -189.699000 5.258830 192.688000 0.000000 13.710021 -0.611466 -14.999978
51.585200 -191.570000 5.263600 194.011000 0.000000 13.370027 -0.619127 -14.999978
52.062900 -193.669000 5.282710 195.791000 0.000000 13.029977 -0.632545 -14.999978
52.540500 -195.722000 5.277930 197.251000 0.000000 12.680014 -0.651722 -14.999978
53.018200 -197.798000 5.282710 199.030000 0.000000 12.329994 -0.663216 -14.999978
53.495800 -199.692000 5.282710 200.650000 0.000000 11.970005 -0.672807 -14.999978
53.973400 -201.905000 5.277930 201.950000 0.000000 11.599989 -0.690059 -14.999978
54.451100 -204.095000 5.287490 203.228000 0.000000 11.229973 -0.695817 -14.999978
54.928700 -206.194000 5.292260 205.007000 0.000000 10.849987 -0.713069 -14.999978
55.406400 -208.087000 5.292260 206.650000 0.000000 10.470002 -0.722637 -14.999978
55.884000 -210.323000 5.301820 208.247000 0.000000 10.079989 -0.732223 -14.999978
56.361600 -212.217000 5.306590 209.890000 0.000000 9.680007 -0.741814 -14.999978
56.839300 -214.293000 5.297040 211.350000 0.000000 9.300022 -0.757135 -14.999978
57.316900 -216.186000 5.320920 212.970000 0.000000 8.899983 -0.757135 -14.999978
57.794600 -218.445000 5.316140 214.909000 0.000000 8.500001 -0.766726 -14.999978
58.272200 -220.338000 5.311370 216.529000 0.000000 8.089992 -0.778243 -14.999978
58.749800 -222.392000 5.311370 217.989000 0.000000 7.670014 -0.787811 -14.999978
59.227500 -224.308000 5.306590 219.631000 0.000000 7.249979 -0.803155 -14.999978
59.705100 -226.384000 5.311370 221.411000 0.000000 6.830001 -0.814649 -14.999978
60.182800 -228.278000 5.320920 222.711000 0.000000 6.410023 -0.822315 -14.999978
60.660400 -230.377000 5.320920 224.810000 0.000000 5.980018 -0.824240 -14.999978
61.138000 -232.111000 5.335250 226.293000 0.000000 5.550002 -0.829998 -14.999978
61.615700 -234.346000 5.344800 227.913000 0.000000 5.120002 -0.837659 -14.999978
62.093300 -236.240000 5.344800 229.533000 0.000000 4.679999 -0.839561 -14.999978
62.571000 -238.179000 5.349580 231.495000 0.000000 4.250000 -0.843394 -14.999978
63.048600 -239.936000 5.349580 233.297000 0.000000 3.839998 -0.829998 -14.999978
63.526300 -242.172000 5.335250 234.894000 0.000000 3.409998 -0.829998 -14.999978
64.003900 -244.065000 5.335250 236.537000 0.000000 2.979999 -0.835733 -14.999978
64.481500 -246.004000 5.344800 238.476000 0.000000 2.540002 -0.841492 -14.999978
64.959200 -247.898000 5.335250 240.118000 0.000000 2.099999 -0.851077 -14.999978
65.436800 -249.997000 5.330470 241.898000 0.000000 1.649998 -0.864496 -14.999978
65.914500 -251.890000 5.325700 243.540000 0.000000 1.189999 -0.875995 -14.999978
66.392100 -253.830000 5.340030 245.480000 0.000000 0.750002 -0.883656 -14.999978
66.869700 -255.404000 5.349580 247.145000 0.000000 0.290000 -0.895149 -14.999978
67.347400 -257.183000 5.349580 249.267000 0.000000 -0.150000 -0.889414 -14.999978
67.825000 -259.100000 5.335250 250.909000 0.000000 -0.619998 -0.891316 -14.999978
68.302700 -261.039000 5.330470 252.849000 0.000000 -1.060001 -0.891316 -14.999978
68.780300 -262.796000 5.325700 254.651000 0.000000 -1.520000 -0.895149 -14.999978
69.257900 -264.552000 5.330470 256.453000 0.000000 -2.000001 -0.908568 -14.999978
69.735600 -266.126000 5.330470 258.119000 0.000000 -2.460000 -0.914326 -14.999978
70.213200 -268.225000 5.301820 260.218000 0.000000 -2.929997 -0.921992 -14.999978
70.690900 -270.005000 5.306590 262.020000 0.000000 -3.400000 -0.937336 -14.999978
71.168500 -271.921000 5.320920 263.982000 0.000000 -3.869998 -0.927745 -14.999978
71.646100 -273.518000 5.320920 265.647000 0.000000 -4.360003 -0.931578 -14.999978
72.123800 -275.298000 5.325700 267.769000 0.000000 -4.830000 -0.935411 -14.999978
72.601400 -277.054000 5.311370 269.571000 0.000000 -5.310001 -0.943071 -14.999978
73.079100 -278.651000 5.301820 271.556000 0.000000 -5.790025 -0.952663 -14.999978
73.556700 -280.408000 5.292260 273.358000 0.000000 -6.280019 -0.958421 -14.999978
74.034400 -282.347000 5.282710 275.298000 0.000000 -6.770012 -0.960323 -14.999978
74.512000 -283.967000 5.282710 277.282000 0.000000 -7.260006 -0.968006 -14.999978
74.989600 -285.724000 5.277930 279.085000 0.000000 -7.749999 -0.968006 -14.999978
75.467300 -287.184000 5.268380 281.252000 0.000000 -8.230023 -0.966081 -14.999978
75.944900 -288.963000 5.263600 283.374000 0.000000 -8.720017 -0.964156 -14.999978
76.422600 -290.537000 5.263600 285.016000 0.000000 -9.210010 -0.968006 -14.999978
76.900200 -292.340000 5.263600 287.161000 0.000000 -9.709973 -0.977575 -14.999978
77.377800 -293.800000 5.254050 289.305000 0.000000 -10.209993 -0.990994 -14.999978
77.855500 -295.397000 5.254050 291.290000 0.000000 -10.719983 -0.998660 -14.999978
78.333100 -296.834000 5.244500 293.115000 0.000000 -11.229973 -1.010170 -14.999978
78.810800 -298.454000 5.225390 295.100000 0.000000 -11.749989 -1.010170 -14.999978
79.288400 -299.754000 5.215840 297.427000 0.000000 -12.250010 -1.006343 -14.999978
79.766000 -301.511000 5.215840 299.230000 0.000000 -12.749973 -1.000585 -14.999978
80.243700 -303.131000 5.206290 301.192000 0.000000 -13.249993 -0.998660 -14.999978
80.721300 -304.591000 5.220620 303.359000 0.000000 -13.750013 -1.000585 -14.999978
81.199000 -305.914000 5.230170 305.686000 0.000000 -14.260003 -1.004418 -14.999978
81.676600 -307.351000 5.225390 307.511000 0.000000 -14.769993 -1.015911 -14.999978
82.154300 -308.812000 5.206290 309.656000 0.000000 -15.290009 -1.017837 -14.769993
82.631900 -310.409000 5.201510 311.640000 0.000000 -15.799999 -1.025497 -13.020008
83.109500 -311.732000 5.187180 313.968000 0.000000 -16.300019 -1.021670 -9.889996
83.587200 -313.009000 5.191960 315.975000 0.000000 -16.799982 -1.000585 -6.730020
84.064800 -314.469000 5.187180 318.120000 0.000000 -17.269979 -0.975673 -3.540003
84.542500 -315.610000 5.182400 320.287000 0.000000 -17.750003 -0.946904 -0.190000
85.020100 -317.230000 5.182400 322.272000 0.000000 -18.180008 -0.908568 2.790001
85.497700 -318.371000 5.187180 324.462000 0.000000 -18.599986 -0.868329 5.989987
85.975400 -319.831000 5.211060 326.607000 0.000000 -19.000025 -0.818482 9.139995
86.453000 -320.971000 5.211060 328.774000 0.000000 -19.349988 -0.757135 12.320025
86.930700 -322.432000 5.196730 330.941000 0.000000 -19.669985 -0.697719 14.560003
87.408300 -323.413000 5.177630 333.291000 0.000000 -19.969986 -0.624885 15.160005
87.885900 -324.713000 5.158520 335.276000 0.000000 -20.249990 -0.559709 15.140009
88.363600 -325.717000 5.144190 337.968000 0.000000 -20.479975 -0.506050 15.040028
88.841200 -326.698000 5.139420 339.976000 0.000000 -20.699991 -0.456200 14.990008
89.318900 -327.838000 5.148970 342.166000 0.000000 -20.900011 -0.404446 14.990008
89.796500 -328.979000 5.153750 344.333000 0.000000 -21.070007 -0.350787 14.990008
90.274100 -330.120000 5.158520 346.523000 0.000000 -21.220008 -0.300937 14.990008
90.751800 -331.238000 5.158520 348.691000 0.000000 -21.339985 -0.253014 14.990008
91.229400 -332.379000 5.163300 350.881000 0.000000 -21.440023 -0.203186 14.999978
91.707100 -333.565000 5.158520 353.367000 0.000000 -21.509982 -0.155263 14.999978
92.184700 -334.523000 5.158520 355.398000 0.000000 -21.570028 -0.107340 14.999978
92.662400 -335.687000 5.148970 357.885000 0.000000 -21.610020 -0.069006 14.999978
93.140000 -336.508000 5.144190 360.098000 0.000000 -21.639986 -0.038334 14.999978
93.617600 -337.352000 5.153750 362.630000 0.000000 -21.650012 -0.005757 14.999978
94.095300 -338.630000 5.144190 364.615000 0.000000 -21.650012 0.026840 14.999978
94.572900 -339.474000 5.148970 367.147000 0.000000 -21.630016 0.051754 14.999978
95.050600 -340.614000 5.158520 369.315000 0.000000 -21.599993 0.076669 14.999978
95.528200 -341.276000 5.168080 371.710000 0.000000 -21.570028 0.103509 14.999978
96.005800 -342.599000 5.172850 374.014000 0.000000 -21.509982 0.126518 14.999978
96.483500 -343.261000 5.172850 376.410000 0.000000 -21.449993 0.155263 14.999978
96.961100 -344.402000 5.187180 378.577000 0.000000 -21.370008 0.178272 14.999978
97.438800 -345.223000 5.187180 380.767000 0.000000 -21.279996 0.207018 14.999978
97.916400 -346.227000 5.196730 383.140000 0.000000 -21.169988 0.239594 14.999978
98.394000 -347.390000 5.187180 385.627000 0.000000 -21.070007 0.253014 14.999978
98.871700 -348.211000 5.182400 387.840000 0.000000 -20.970026 0.266435 14.999978
99.349300 -349.192000 5.206290 390.189000 0.000000 -20.829995 0.279854 14.999978
99.827000 -350.014000 5.196730 392.380000 0.000000 -20.699991 0.297106 14.999978
100.305000 -350.858000 5.211060 394.912000 0.000000 -20.569987 0.314357 14.999978
100.782000 -351.816000 5.211060 396.942000 0.000000 -20.419987 0.333535 14.999978
101.260000 -352.843000 5.220620 399.612000 0.000000 -20.260017 0.354618 14.999978
101.738000 -353.824000 5.211060 401.961000 0.000000 -20.090020 0.381458 14.999978
102.215000 -354.645000 5.230170 404.152000 0.000000 -19.900027 0.404446 14.999978
102.693000 -355.649000 5.225390 406.501000 0.000000 -19.720004 0.425529 14.999978
103.170000 -356.493000 5.225390 409.034000 0.000000 -19.510015 0.448538 14.999978
103.648000 -357.611000 5.244500 411.201000 0.000000 -19.300026 0.463863 14.999978
104.126000 -358.432000 5.239720 413.414000 0.000000 -19.080010 0.481114 14.999978
104.603000 -359.436000 5.249270 415.764000 0.000000 -18.850025 0.496460 14.999978
105.081000 -360.280000 5.249270 418.274000 0.000000 -18.619982 0.513712 14.999978
105.559000 -361.124000 5.254050 420.806000 0.000000 -18.380028 0.527132 14.999978
106.036000 -362.265000 5.254050 422.973000 0.000000 -18.140016 0.538626 14.999978
106.514000 -362.927000 5.239720 425.346000 0.000000 -17.889977 0.548215 14.999978
106.992000 -363.908000 5.244500 427.719000 0.000000 -17.639995 0.555878 14.999978
107.469000 -364.752000 5.268380 430.228000 0.000000 -17.390014 0.563541 14.999978
107.947000 -365.756000 5.268380 432.578000 0.000000 -17.130006 0.569298 14.999978
108.425000 -366.737000 5.263600 434.928000 0.000000 -16.869997 0.576963 14.999978
108.902000 -367.740000 5.277930 437.278000 0.000000 -16.609989 0.580790 14.999978
109.380000 -368.721000 5.282710 439.628000 0.000000 -16.340011 0.590381 14.999978
109.857000 -369.725000 5.287490 441.977000 0.000000 -16.060007 0.605725 14.999978
110.335000 -370.569000 5.306590 444.510000 0.000000 -15.769976 0.622977 14.999978
110.813000 -371.710000 5.287490 446.677000 0.000000 -15.480002 0.638304 14.999978
111.290000 -372.554000 5.282710 449.209000 0.000000 -15.180001 0.651722 14.999978
111.768000 -373.535000 5.301820 451.559000 0.000000 -14.880000 0.661314 14.999978
112.246000 -374.516000 5.297040 453.909000 0.000000 -14.569973 0.668974 14.999978
112.723000 -375.520000 5.306590 456.259000 0.000000 -14.260003 0.676640 14.999978
113.201000 -376.364000 5.287490 458.769000 0.000000 -13.949975 0.686226 14.999978
113.679000 -377.505000 5.297040 460.959000 0.000000 -13.629978 0.691984 14.999978
114.156000 -378.349000 5.301820 463.468000 0.000000 -13.309981 0.697719 14.999978
114.634000 -379.353000 5.311370 466.160000 0.000000 -13.000011 0.707311 14.999978
115.111000 -380.493000 5.325700 468.328000 0.000000 -12.660018 0.714971 14.999978
115.589000 -381.497000 5.301820 470.678000 0.000000 -12.320025 0.728390 14.999978
116.067000 -382.638000 5.311370 472.845000 0.000000 -11.979975 0.737981 14.999978
116.544000 -383.482000 5.320920 475.377000 0.000000 -11.639981 0.745642 14.999978
117.022000 -384.782000 5.316140 477.704000 0.000000 -11.290019 0.751400 14.999978
117.500000 -385.763000 5.320920 479.735000 0.000000 -10.939999 0.762893 14.999978
