time x0G u y0G v psi r delta 
[s] [m] [m/s] [m] [m/s] [deg] [deg/s] [deg/s] [deg] 
0.000000 0.000000 1.197336 0.000000 0.000000 0.000000 0.000000 0.000000
0.096950 0.118432 1.195396 -0.003760 0.000000 -0.040000 -0.066116 -0.150000
0.193900 0.234044 1.196366 0.000000 0.000000 -0.090000 -0.141619 -2.180001
0.290850 0.350596 1.198304 0.005640 0.000000 -0.140000 -0.236101 -5.210003
0.387800 0.463386 1.199274 -0.009399 0.000000 -0.210000 -0.368230 -8.160008
0.484750 0.588398 1.198304 -0.001880 0.000000 -0.300000 -0.566581 -11.200007
0.581702 0.695550 1.200245 0.000000 0.000000 -0.400000 -0.736562 -14.240007
0.678652 0.826203 1.198304 -0.010339 0.000000 -0.530000 -0.963174 -17.229987
0.775602 0.938996 1.199274 0.002820 0.000000 -0.679998 -1.218152 -20.139982
0.872552 1.064947 1.196366 0.010339 0.000000 -0.850000 -1.492003 -23.130020
0.969502 1.176796 1.192487 -0.004700 0.000000 -1.060001 -1.813096 -24.950020
1.066452 1.293350 1.191519 0.000000 0.000000 -1.289997 -2.105927 -25.180005
1.163402 1.414601 1.188610 -0.013159 0.000000 -1.559998 -2.379778 -25.100020
1.260352 1.531155 1.188610 -0.007519 0.000000 -1.840002 -2.653629 -25.010009
1.357302 1.646766 1.186672 -0.002820 0.000000 -2.159999 -2.927494 -24.990013
1.454252 1.766138 1.184731 -0.007519 0.000000 -2.490000 -3.172962 -24.990013
1.551204 1.884571 1.182793 -0.011279 0.000000 -2.850001 -3.399687 -24.990013
1.648154 2.001121 1.180854 -0.006580 0.000000 -3.240002 -3.635784 -24.990013
1.745104 2.119553 1.179884 -0.010339 0.000000 -3.640001 -3.834027 -24.999982
1.842054 2.236103 1.176975 -0.005640 0.000000 -4.060002 -3.994614 -24.999982
1.939004 2.351718 1.176975 -0.000940 0.000000 -4.490001 -4.183486 -24.999982
2.035963 2.471086 1.175037 -0.004700 0.000000 -4.950000 -4.343988 -24.999982
2.132905 2.581060 1.174067 -0.011279 0.000000 -5.409999 -4.485691 -24.999982
2.229846 2.710770 1.174067 -0.021618 0.000000 -5.890006 -4.655678 -24.999982
2.326809 2.817922 1.171158 -0.019739 0.000000 -6.390026 -4.797297 -24.999982
2.423751 2.940116 1.168249 -0.032898 0.000000 -6.900016 -4.995653 -24.999982
2.520713 3.055727 1.166311 -0.028198 0.000000 -7.430002 -5.175040 -24.999982
2.617655 3.165701 1.164373 -0.034778 0.000000 -7.970015 -5.278889 -24.999982
2.714597 3.286952 1.159525 -0.047937 0.000000 -8.530024 -5.439505 -24.999982
2.811559 3.394104 1.157585 -0.046057 0.000000 -9.100002 -5.552755 -24.999982
2.908501 3.516294 1.155647 -0.058276 0.000000 -9.680007 -5.666117 -24.999982
3.005463 3.623447 1.155647 -0.056396 0.000000 -10.269982 -5.769967 -24.999982
3.102405 3.741880 1.153708 -0.060156 0.000000 -10.869983 -5.902213 -24.999982
3.199367 3.854672 1.148861 -0.076135 0.000000 -11.480012 -6.024947 -24.999982
3.296309 3.973105 1.148861 -0.080834 0.000000 -12.100009 -6.128825 -24.999982
3.393251 4.085897 1.146921 -0.095873 0.000000 -12.740003 -6.242160 -24.999982
3.490213 4.204309 1.142073 -0.100573 0.000000 -13.379997 -6.364922 -24.999982
3.587155 4.317114 1.137226 -0.116552 0.000000 -14.039987 -6.459400 -24.999982
3.684117 4.427076 1.136256 -0.123132 0.000000 -14.699977 -6.544393 -24.999982
3.781059 4.538934 1.132379 -0.139110 0.000000 -15.369994 -6.619903 -24.999982
3.878001 4.651739 1.128500 -0.154149 0.000000 -16.049980 -6.686012 -24.999982
3.974963 4.764544 1.126562 -0.170128 0.000000 -16.730024 -6.723752 -24.999982
4.071905 4.867914 1.123653 -0.188927 0.000000 -17.419980 -6.808746 -24.999982
4.168867 4.992007 1.117836 -0.210545 0.000000 -18.109993 -6.837115 -24.999982
4.265809 5.095377 1.118806 -0.229344 0.000000 -18.809975 -6.922108 -24.999982
4.362751 5.207235 1.113957 -0.245323 0.000000 -19.519985 -6.931508 -24.999982
4.459713 5.310646 1.111050 -0.263182 0.000000 -20.220024 -6.988218 -24.999982
4.556655 5.423410 1.104263 -0.279161 0.000000 -20.929976 -6.978733 -24.999982
4.653617 5.526821 1.099416 -0.297959 0.000000 -21.650012 -7.054355 -24.999982
4.750559 5.642427 1.098446 -0.322397 0.000000 -22.369991 -7.129836 -24.999982
4.847501 5.742048 1.096507 -0.361875 0.000000 -23.090027 -7.158205 -24.999982
4.944463 5.853906 1.090690 -0.377853 0.000000 -23.810006 -7.148720 -24.999982
5.041405 5.960119 1.087781 -0.405112 0.000000 -24.540012 -7.177089 -24.999982
5.138367 6.066332 1.082934 -0.432371 0.000000 -25.270017 -7.252598 -24.999982
5.235309 6.181938 1.080025 -0.457750 0.000000 -26.009992 -7.290451 -24.999982
5.332271 6.275956 1.074208 -0.478428 0.000000 -26.750024 -7.365932 -24.999982
5.429213 6.382169 1.070331 -0.505686 0.000000 -27.500026 -7.403701 -24.999982
5.526155 6.478988 1.066452 -0.535761 0.000000 -28.259997 -7.469810 -24.999982
5.623117 6.585201 1.058697 -0.563019 0.000000 -29.020026 -7.507551 -24.999982
5.720059 6.685770 1.053849 -0.602497 0.000000 -29.779997 -7.573688 -24.999982
5.817022 6.793837 1.053849 -0.639156 0.000000 -30.549995 -7.592544 -24.999982
5.913963 6.900049 1.049971 -0.666414 0.000000 -31.319993 -7.620913 -24.999982
6.010905 6.991224 1.045123 -0.708710 0.000000 -32.089991 -7.611429 -24.999982
6.107868 7.099333 1.042215 -0.744430 0.000000 -32.859989 -7.630398 -24.999982
6.204809 7.187665 1.038338 -0.777328 0.000000 -33.620018 -7.592544 -24.999982
6.301772 7.293878 1.030580 -0.805525 0.000000 -34.390015 -7.592544 -24.999982
6.398714 7.393540 1.026703 -0.844063 0.000000 -35.160013 -7.639797 -24.999982
6.495655 7.481872 1.019916 -0.876957 0.000000 -35.930011 -7.658682 -24.999982
6.592618 7.584336 1.016039 -0.924897 0.000000 -36.709979 -7.677538 -24.999982
6.689560 7.683957 1.011192 -0.964375 0.000000 -37.490004 -7.724791 -24.999982
6.786522 7.772330 1.008283 -0.997273 0.000000 -38.270028 -7.715391 -24.999982
6.883464 7.874753 1.002466 -1.045208 0.000000 -39.049996 -7.724791 -24.999982
6.980426 7.958429 0.999557 -1.098785 0.000000 -39.839990 -7.772016 -24.999982
7.077368 8.052406 0.994710 -1.149539 0.000000 -40.620015 -7.753160 -24.999982
7.174310 8.140779 0.988893 -1.182437 0.000000 -41.399982 -7.743675 -24.999982
7.271272 8.222561 0.984046 -1.226615 0.000000 -42.180007 -7.734275 -24.999982
7.368214 8.324984 0.978228 -1.274551 0.000000 -42.959974 -7.687051 -24.999982
7.465176 8.418054 0.972411 -1.325309 0.000000 -43.729972 -7.677538 -24.999982
7.562118 8.493243 0.965623 -1.381703 0.000000 -44.509997 -7.668166 -24.999982
7.659060 8.581617 0.961746 -1.414601 0.000000 -45.279995 -7.649282 -24.999982
7.756022 8.666200 0.961746 -1.468177 0.000000 -46.049993 -7.658682 -24.999982
7.852964 8.749835 0.956899 -1.521753 0.000000 -46.830018 -7.696422 -24.999982
7.949926 8.837261 0.952050 -1.583788 0.000000 -47.609985 -7.715391 -24.999982
8.046868 8.921844 0.949144 -1.637364 0.000000 -48.390010 -7.724791 -24.999982
8.143810 9.003626 0.943326 -1.682482 0.000000 -49.169977 -7.724791 -24.999982
8.240772 9.078815 0.936539 -1.737941 0.000000 -49.939975 -7.696422 -24.999982
8.337714 9.163439 0.929753 -1.791517 0.000000 -50.720000 -7.677538 -24.999982
8.434676 9.248022 0.925874 -1.845093 0.000000 -51.500025 -7.687051 -24.999982
8.531618 9.316620 0.917148 -1.912768 0.000000 -52.279992 -7.743675 -24.999982
8.628560 9.389008 0.912301 -1.959764 0.000000 -53.060017 -7.781416 -24.999982
8.725522 9.467040 0.911333 -2.025560 0.000000 -53.850011 -7.800385 -24.999982
8.822464 9.545031 0.908424 -2.090413 0.000000 -54.640006 -7.790900 -24.999982
8.919426 9.608932 0.909393 -2.140232 0.000000 -55.419973 -7.772016 -24.999982
9.016368 9.686964 0.903575 -2.205088 0.000000 -56.199998 -7.753160 -24.999982
9.113330 9.764997 0.899698 -2.270880 0.000000 -56.980022 -7.715391 -24.999982
9.210272 9.838291 0.892911 -2.317881 0.000000 -57.759875 -7.687051 -24.999982
9.307214 9.904087 0.887096 -2.376154 0.000000 -58.529931 -7.649282 -24.999982
9.404176 9.961437 0.879338 -2.438192 0.000000 -59.309726 -7.649282 -24.999982
9.501118 10.039428 0.871582 -2.503045 0.000000 -60.079781 -7.620913 -24.999982
9.598081 10.109015 0.870614 -2.570719 0.000000 -60.849837 -7.639797 -24.999982
9.695022 10.174810 0.867705 -2.629936 0.000000 -61.619892 -7.649282 -24.999982
9.791964 10.226475 0.869644 -2.703251 0.000000 -62.389947 -7.649282 -24.999982
9.888927 10.289469 0.865765 -2.753069 0.000000 -63.160003 -7.620913 -24.999982
9.985868 10.359015 0.861888 -2.820744 0.000000 -63.930058 -7.592544 -24.999982
10.082831 10.419166 0.858979 -2.891237 0.000000 -64.700113 -7.602057 -24.999982
10.179773 10.479318 0.855100 -2.961734 0.000000 -65.470168 -7.602057 -24.999982
10.276714 10.536668 0.847344 -3.022829 0.000000 -66.240224 -7.602057 -24.999982
10.373677 10.594018 0.842497 -3.084863 0.000000 -67.010279 -7.611429 -24.999982
10.470619 10.653222 0.835712 -3.154421 0.000000 -67.779761 -7.630398 -24.999982
10.567581 10.711478 0.830863 -3.216455 0.000000 -68.549817 -7.630398 -24.999982
10.664523 10.770723 0.830863 -3.286952 0.000000 -69.319872 -7.658682 -24.999982
10.761485 10.819586 0.827954 -3.350865 0.000000 -70.089927 -7.649282 -24.999982
10.858427 10.870344 0.825045 -3.424180 0.000000 -70.859982 -7.583173 -24.999982
10.955369 10.921103 0.823107 -3.497495 0.000000 -71.619724 -7.498179 -24.999982
11.052331 10.972808 0.820198 -3.570810 0.000000 287.629970 -7.432070 -24.999982
11.149273 11.023566 0.813413 -3.643186 0.000000 286.879968 -7.365932 -24.999982
11.246235 11.074324 0.809534 -3.716500 0.000000 286.140280 -7.328192 -24.999982
11.343177 11.125082 0.803717 -3.789815 0.000000 285.400018 -7.375445 -24.999982
11.440119 11.161709 0.795961 -3.847153 0.000000 284.650016 -7.403701 -24.999982
11.537081 11.210613 0.792084 -3.912006 0.000000 283.890274 -7.450926 -24.999982
11.634023 11.251936 0.791114 -3.987203 0.000000 283.140272 -7.460439 -24.999982
11.730985 11.294249 0.790143 -4.063336 0.000000 282.390271 -7.460439 -24.999982
11.827927 11.336561 0.788205 -4.139461 0.000000 281.640269 -7.422585 -24.999982
11.924869 11.376030 0.784328 -4.206205 0.000000 280.890267 -7.384817 -24.999982
12.021831 11.417395 0.776570 -4.281394 0.000000 280.140265 -7.375445 -24.999982
12.118773 11.454062 0.773664 -4.339692 0.000000 279.400004 -7.337592 -24.999982
12.215735 11.496333 0.765906 -4.414881 0.000000 278.659743 -7.280967 -24.999982
12.312677 11.538645 0.760091 -4.491018 0.000000 277.920054 -7.271454 -24.999982
12.409619 11.568721 0.757182 -4.560564 0.000000 277.179793 -7.299823 -24.999982
12.506581 11.601599 0.757182 -4.638596 0.000000 276.440104 -7.365932 -24.999982
12.603523 11.641109 0.755242 -4.706246 0.000000 275.690102 -7.384817 -24.999982
12.700485 11.683380 0.754273 -4.781435 0.000000 274.949841 -7.337592 -24.999982
12.797427 11.704062 0.750394 -4.853823 0.000000 274.210152 -7.280967 -24.999982
12.894389 11.736981 0.749424 -4.931856 0.000000 273.480204 -7.214829 -24.999982
12.991331 11.767963 0.744577 -5.001401 0.000000 272.750256 -7.139320 -24.999982
13.088273 11.798039 0.739730 -5.070946 0.000000 272.030048 -7.101467 -24.999982
13.185235 11.821564 0.734883 -5.152727 0.000000 271.309840 -7.129836 -24.999982
13.282177 11.852587 0.732945 -5.221325 0.000000 270.579892 -7.158205 -24.999982
13.379139 11.885465 0.729066 -5.300305 0.000000 269.860257 -7.186461 -24.999982
13.476081 11.903345 0.725187 -5.363258 0.000000 269.129736 -7.177089 -24.999982
13.573023 11.924934 0.723248 -5.435646 0.000000 268.399787 -7.186461 -24.999982
13.669985 11.949407 0.721310 -5.516480 0.000000 267.669839 -7.186461 -24.999982
13.766927 11.970048 0.722280 -5.588868 0.000000 266.939891 -7.186461 -24.999982
13.863890 11.994520 0.723248 -5.669702 0.000000 266.220256 -7.148720 -24.999982
13.960831 12.015203 0.720340 -5.742048 0.000000 265.500048 -7.120464 -24.999982
14.057773 12.036791 0.715493 -5.814436 0.000000 264.779840 -7.073211 -24.999982
14.154736 12.058421 0.704828 -5.885877 0.000000 264.060205 -7.054355 -24.999982
14.251677 12.070658 0.704828 -5.961066 0.000000 263.349737 -6.997617 -24.999982
14.348640 12.091299 0.698043 -6.033454 0.000000 262.639843 -6.997617 -24.999982
14.445582 12.103535 0.702890 -6.107696 0.000000 261.929948 -7.007102 -24.999982
14.542523 12.118573 0.702890 -6.191332 0.000000 261.220053 -7.007102 -24.999982
14.639486 12.128914 0.696102 -6.257128 0.000000 260.510158 -6.997617 -24.999982
14.736428 12.138308 0.698043 -6.322924 0.000000 259.800264 -7.016473 -24.999982
14.833390 12.159937 0.696102 -6.395311 0.000000 259.089796 -7.007102 -24.999982
14.930332 12.162739 0.695134 -6.472396 0.000000 258.379901 -6.978733 -24.999982
15.027294 12.172132 0.691255 -6.538192 0.000000 257.679747 -6.874855 -24.999982
15.124236 12.184369 0.687376 -6.613382 0.000000 256.989906 -6.808746 -24.999982
15.221178 12.188118 0.677682 -6.690466 0.000000 256.300065 -6.818230 -24.999982
15.318140 12.200354 0.678652 -6.765656 0.000000 255.610223 -6.818230 -24.999982
15.415082 12.198459 0.676712 -6.824860 0.000000 254.919809 -6.808746 -24.999982
15.512044 12.201302 0.678652 -6.901945 0.000000 254.220228 -6.846514 -24.999982
15.608986 12.210695 0.674773 -6.967741 0.000000 253.529814 -6.789890 -24.999982
15.705928 12.217287 0.676712 -7.054219 0.000000 252.839972 -6.818230 -24.999982
15.802890 12.220089 0.675744 -7.132210 0.000000 252.150131 -6.818230 -24.999982
15.899832 12.215392 0.675744 -7.182020 0.000000 251.459717 -6.780490 -24.999982
15.996794 12.224786 0.670896 -7.247816 0.000000 250.769876 -6.799374 -24.999982
16.093736 12.228535 0.664109 -7.325849 0.000000 250.080035 -6.799374 -24.999982
16.190678 12.226681 0.662170 -7.385053 0.000000 249.390194 -6.789890 -24.999982
16.287640 12.221037 0.658292 -7.464980 0.000000 248.710093 -6.761521 -24.999982
16.384582 12.223838 0.662170 -7.542024 0.000000 248.020251 -6.733237 -24.999982
16.481544 12.209748 0.663139 -7.595625 0.000000 247.340151 -6.733237 -24.999982
16.578486 12.204103 0.660232 -7.675511 0.000000 246.660050 -6.695496 -24.999982
16.675448 12.205051 0.659262 -7.744108 0.000000 245.979949 -6.667127 -24.999982
16.772390 12.196605 0.654415 -7.815549 0.000000 245.310161 -6.610503 -24.999982
16.869332 12.194710 0.655383 -7.874753 0.000000 244.639800 -6.582134 -24.999982
16.966294 12.186264 0.651506 -7.945287 0.000000 243.970013 -6.563278 -24.999982
17.063236 12.180620 0.650536 -8.026121 0.000000 243.300225 -6.563278 -24.999982
17.160198 12.178724 0.648597 -8.085325 0.000000 242.640178 -6.544393 -24.999982
17.257140 12.158042 0.641810 -8.150173 0.000000 241.969817 -6.553765 -24.999982
17.354082 12.149596 0.643750 -8.220666 0.000000 241.300030 -6.534909 -24.999982
17.451044 12.143952 0.644718 -8.301500 0.000000 240.639982 -6.553765 -24.999982
17.547986 12.132663 0.645689 -8.363546 0.000000 239.959881 -6.619903 -24.999982
17.644948 12.122322 0.646659 -8.425593 0.000000 239.290094 -6.601018 -24.999982
17.741890 12.108232 0.643750 -8.478205 0.000000 238.619733 -6.591534 -24.999982
17.838832 12.090392 0.642780 -8.552447 0.000000 237.960259 -6.534909 -24.999982
17.935794 12.082853 0.642780 -8.622940 0.000000 237.289898 -6.487656 -24.999982
18.032736 12.062170 0.637933 -8.687830 0.000000 236.640164 -6.440516 -24.999982
18.129699 12.053724 0.634054 -8.759270 0.000000 235.989857 -6.393291 -24.999982
18.226641 12.028345 0.632116 -8.805290 0.000000 235.340123 -6.364922 -24.999982
18.323582 12.017057 0.635024 -8.867337 0.000000 234.689815 -6.421547 -24.999982
18.420545 12.000165 0.634054 -8.941579 0.000000 234.029768 -6.487656 -24.999982
18.517487 11.977587 0.635992 -8.997034 0.000000 233.369721 -6.487656 -24.999982
18.614449 11.956905 0.639871 -9.061923 0.000000 232.710246 -6.468771 -24.999982
18.711391 11.948459 0.639871 -9.133364 0.000000 232.050199 -6.468771 -24.999982
18.808353 11.914593 0.634054 -9.182226 0.000000 231.390151 -6.440516 -24.999982
18.905295 11.903345 0.636963 -9.244273 0.000000 230.730104 -6.478284 -24.999982
19.002237 11.880768 0.632116 -9.300634 0.000000 230.079797 -6.449915 -24.999982
19.099199 11.851640 0.631145 -9.367378 0.000000 229.419750 -6.412147 -24.999982
19.196141 11.829062 0.631145 -9.423780 0.000000 228.770015 -6.412147 -24.999982
19.293103 11.811223 0.633086 -9.497116 0.000000 228.120281 -6.374406 -24.999982
19.390045 11.785844 0.629207 -9.544084 0.000000 227.469974 -6.355522 -24.999982
19.486987 11.763266 0.634054 -9.599539 0.000000 226.820240 -6.364922 -24.999982
19.583949 11.736981 0.631145 -9.675676 0.000000 226.180246 -6.364922 -24.999982
19.680891 11.705010 0.633086 -9.733973 0.000000 225.529939 -6.402662 -24.999982
19.777853 11.673039 0.630177 -9.792230 0.000000 224.880205 -6.374406 -24.999982
19.874795 11.657053 0.635024 -9.836396 0.000000 224.229898 -6.355522 -24.999982
19.971737 11.627925 0.634054 -9.904087 0.000000 223.580164 -6.346037 -24.999982
20.068699 11.595954 0.628237 -9.962385 0.000000 222.940170 -6.317669 -24.999982
20.165641 11.564024 0.624360 -10.020641 0.000000 222.289863 -6.327153 -24.999982
20.262603 11.530158 0.626298 -10.070452 0.000000 221.649869 -6.336553 -24.999982
20.359626 11.509517 0.625328 -10.135300 0.000000 221.000135 -6.336553 -24.999982
20.456446 11.475651 0.622421 -10.184204 0.000000 220.360141 -6.327153 -24.999982
20.553469 11.434286 0.621451 -10.245303 0.000000 219.709834 -6.355522 -24.999982
20.650493 11.397660 0.616604 -10.285720 0.000000 219.069840 -6.374406 -24.999982
20.747313 11.365689 0.623390 -10.343977 0.000000 218.420106 -6.374406 -24.999982
20.844336 11.345954 0.615634 -10.408825 0.000000 217.769799 -6.346037 -24.999982
20.941156 11.298945 0.618543 -10.452085 0.000000 217.129805 -6.289413 -24.999982
21.038179 11.267922 0.614664 -10.510341 0.000000 216.489811 -6.261044 -24.999982
21.135202 11.223756 0.607878 -10.562047 0.000000 215.849817 -6.242160 -24.999982
21.232022 11.201220 0.615634 -10.618449 0.000000 215.220137 -6.223303 -24.999982
21.329045 11.167353 0.612725 -10.667312 0.000000 214.580143 -6.279928 -24.999982
21.426068 11.125989 0.614664 -10.728411 0.000000 213.940149 -6.317669 -24.999982
21.522888 11.079969 0.609817 -10.771630 0.000000 213.289842 -6.298813 -24.999982
21.619912 11.043301 0.612725 -10.812047 0.000000 212.649848 -6.327153 -24.999982
21.716935 11.008528 0.611755 -10.860951 0.000000 212.000114 -6.336553 -24.999982
21.813755 10.965269 0.612725 -10.913563 0.000000 211.360120 -6.317669 -24.999982
21.910778 10.919207 0.610787 -10.955875 0.000000 210.720126 -6.298813 -24.999982
22.007801 10.884435 0.611755 -11.005686 0.000000 210.080132 -6.251559 -24.999982
22.104621 10.850610 0.613695 -11.054590 0.000000 209.440138 -6.223303 -24.999982
22.298464 10.758487 0.611755 -11.141027 0.000000 208.180204 -6.223303 -24.999982
22.395487 10.712426 0.610787 -11.184286 0.000000 207.540210 -6.213819 -24.999982
22.492510 10.688942 0.609817 -11.239741 0.000000 206.909957 -6.213819 -24.999982
22.589331 10.642881 0.610787 -11.282960 0.000000 206.280276 -6.176050 -24.999982
22.686354 10.585531 0.610787 -11.319628 0.000000 205.650023 -6.157194 -24.999982
22.783377 10.539469 0.606908 -11.362887 0.000000 205.019769 -6.157194 -24.999982
22.880197 10.514090 0.605940 -11.408907 0.000000 204.399829 -6.128825 -24.999982
22.977220 10.468070 0.603999 -11.452167 0.000000 203.770148 -6.119426 -24.999982
23.074243 10.409773 0.603999 -11.488835 0.000000 203.150208 -6.166566 -24.999982
23.171063 10.363711 0.603999 -11.532053 0.000000 202.519954 -6.185535 -24.999982
23.268086 10.327044 0.605940 -11.572470 0.000000 201.879960 -6.194935 -24.999982
23.364906 10.278181 0.604969 -11.606295 0.000000 201.250280 -6.185535 -24.999982
23.461929 10.229318 0.606908 -11.640162 0.000000 200.620026 -6.213819 -24.999982
23.558953 10.186058 0.606908 -11.691826 0.000000 199.980032 -6.251559 -24.999982
23.655773 10.145641 0.605940 -11.723797 0.000000 199.340038 -6.270528 -24.999982
23.752796 10.097726 0.603999 -11.757622 0.000000 198.700044 -6.279928 -24.999982
23.849819 10.039428 0.602061 -11.794290 0.000000 198.069791 -6.251559 -24.999982
23.946639 9.993367 0.602061 -11.837549 0.000000 197.429797 -6.223303 -24.999982
24.043662 9.944504 0.604969 -11.871374 0.000000 196.800116 -6.194935 -24.999982
24.140685 9.895641 0.603031 -11.905199 0.000000 196.169863 -6.157194 -24.999982
24.237505 9.844883 0.603999 -11.930578 0.000000 195.540182 -6.128825 -24.999982
24.334528 9.795979 0.605940 -11.964445 0.000000 194.920242 -6.138310 -24.999982
