time x0G u y0G v psi r delta 
[s] [m] [m/s] [m] [m/s] [rad] [rad/s] [rad/s] [rad] 
0.000000 0.000000 4.967470 0.000000 0.000000 0.000000 0.000000 0.000000
0.477641 1.596990 4.972240 -1.962010 0.000000 -0.010000 -0.001926 0.000000
0.955282 3.057090 4.981800 -4.129350 0.000000 -0.020000 0.005737 -0.130000
1.432920 4.494380 4.991350 -5.954480 0.000000 -0.040000 0.000000 -1.870002
1.910560 6.136990 4.996120 -8.258700 0.000000 -0.070000 -0.011515 -4.950000
2.388200 7.574280 5.010450 -10.083800 0.000000 -0.120000 -0.044092 -7.990011
2.865850 8.851870 5.020010 -12.091500 0.000000 -0.180000 -0.084352 -11.149988
3.343490 10.152300 5.015230 -14.076300 0.000000 -0.270000 -0.118855 -14.310022
3.821130 11.749300 5.015230 -16.061100 0.000000 -0.380000 -0.162947 -17.489995
4.298770 13.049700 5.015230 -18.068800 0.000000 -0.520000 -0.214701 -19.700008
4.776410 14.646600 5.024780 -20.053600 0.000000 -0.670000 -0.254940 -20.190001
5.254050 16.083900 5.010450 -21.878700 0.000000 -0.820000 -0.289443 -20.130013
5.731690 17.544000 5.010450 -24.023200 0.000000 -1.020002 -0.327778 -20.009978
6.209330 18.981300 5.020010 -25.848400 0.000000 -1.210001 -0.362281 -19.989982
6.686970 20.623900 5.020010 -28.152600 0.000000 -1.430000 -0.396784 -19.989982
7.164610 22.220900 5.024780 -30.137400 0.000000 -1.670000 -0.431287 -19.989982
7.642260 23.658200 5.034340 -31.962500 0.000000 -1.919999 -0.465789 -19.989982
8.119900 25.278000 5.034340 -33.947400 0.000000 -2.180001 -0.504144 -19.989982
8.597540 26.418700 5.034340 -36.114700 0.000000 -2.460000 -0.542479 -20.000009
9.075180 28.015700 5.034340 -38.099500 0.000000 -2.780003 -0.582715 -20.000009
9.552820 29.453000 5.034340 -39.924700 0.000000 -3.100000 -0.621052 -20.000009
10.030500 31.072800 5.024780 -41.909500 0.000000 -3.430000 -0.645987 -20.000009
10.508100 32.213500 5.024780 -44.076800 0.000000 -3.779997 -0.676657 -20.000009
10.985700 33.833300 5.015230 -46.061700 0.000000 -4.139998 -0.699644 -20.000009
11.463400 35.270600 5.024780 -47.886800 0.000000 -4.509997 -0.726488 -20.000009
11.941000 37.050100 5.024780 -50.031300 0.000000 -4.890000 -0.749498 -20.000009
12.418700 38.008300 5.034340 -52.061800 0.000000 -5.280001 -0.772485 -20.000009
12.896300 39.628100 5.043890 -54.023800 0.000000 -5.680000 -0.801253 -20.000009
13.373900 41.088200 5.029560 -56.191100 0.000000 -6.110022 -0.829998 -20.000009
13.851600 42.685200 5.029560 -58.153100 0.000000 -6.540027 -0.858743 -20.000009
14.329200 44.145300 5.024780 -60.320500 0.000000 -6.990028 -0.883679 -20.000009
14.806900 45.263200 5.024780 -62.168400 0.000000 -7.430002 -0.908591 -20.000009
15.284500 46.723300 5.029560 -64.312900 0.000000 -7.899999 -0.918176 -20.000009
15.762200 48.023700 5.015230 -66.320600 0.000000 -8.350000 -0.925843 -20.000009
16.239800 49.483800 5.020010 -68.465100 0.000000 -8.819998 -0.933503 -20.000009
16.717400 50.761400 5.015230 -70.472700 0.000000 -9.289995 -0.943094 -20.000009
17.195100 52.381200 5.020010 -72.457600 0.000000 -9.759992 -0.954588 -20.000009
17.672700 53.521900 5.005680 -74.624900 0.000000 -10.240016 -0.964173 -20.000009
18.150400 54.982000 5.010450 -76.792200 0.000000 -10.719983 -0.975673 -20.000009
18.628000 56.259600 5.000900 -78.777100 0.000000 -11.200007 -0.979500 -20.000009
19.105600 57.719700 4.991350 -80.944400 0.000000 -11.679974 -0.987183 -20.000009
19.583300 59.020100 4.972240 -82.952000 0.000000 -12.179994 -1.000585 -20.000009
20.060900 60.160800 4.962690 -85.119400 0.000000 -12.689984 -1.014004 -20.000009
20.538600 61.461200 4.957910 -87.446400 0.000000 -13.210000 -1.037014 -20.000009
21.016200 62.761600 4.967470 -89.454100 0.000000 -13.739986 -1.058098 -20.000009
21.493800 64.039200 4.967470 -91.461700 0.000000 -14.279999 -1.081103 -20.000009
21.971500 65.202700 4.972240 -93.948400 0.000000 -14.820012 -1.098354 -20.000009
22.449100 66.503100 4.962690 -95.956100 0.000000 -15.360024 -1.106021 -20.000009
22.926800 67.643800 4.948360 -98.123400 0.000000 -15.910007 -1.113681 -20.000009
23.404400 68.784500 4.943580 -100.314000 0.000000 -16.459989 -1.111779 -20.000009
23.882000 70.062100 4.953140 -102.321000 0.000000 -17.010028 -1.115606 -20.000009
24.359700 71.202800 4.943580 -104.489000 0.000000 -17.560011 -1.121341 -20.000009
24.837300 72.526000 4.919700 -106.816000 0.000000 -18.120019 -1.129031 -20.000009
25.315000 73.507000 4.919700 -109.165000 0.000000 -18.680028 -1.142449 -20.000009
25.792600 74.624900 4.914930 -111.013000 0.000000 -19.239980 -1.150110 -20.000009
26.270300 75.765600 4.914930 -113.204000 0.000000 -19.799989 -1.144351 -20.000009
26.747900 76.746600 4.919700 -115.553000 0.000000 -20.359998 -1.146277 -19.949989
27.225500 77.887300 4.910150 -117.721000 0.000000 -20.920007 -1.144351 -18.400024
27.703200 78.708600 4.900600 -119.934000 0.000000 -21.480016 -1.146277 -15.319975
28.180800 79.849300 4.900600 -122.101000 0.000000 -22.029998 -1.138593 -12.179994
28.658500 80.853100 4.881490 -124.451000 0.000000 -22.579980 -1.129031 -8.989994
29.136100 81.993800 4.881490 -126.618000 0.000000 -23.110023 -1.106021 -5.989987
29.613700 82.655500 4.862390 -129.014000 0.000000 -23.629983 -1.081103 -2.850001
30.091400 83.796200 4.886270 -131.181000 0.000000 -24.119976 -1.038939 0.350000
30.569000 84.457800 4.881490 -133.554000 0.000000 -24.580004 -0.985258 3.510002
31.046700 85.438800 4.881490 -135.584000 0.000000 -25.010009 -0.925843 6.710023
31.524300 86.282900 4.881490 -138.117000 0.000000 -25.409991 -0.864496 9.859973
32.001900 87.241100 4.895820 -140.124000 0.000000 -25.780007 -0.805080 13.049973
32.479600 87.902700 4.876710 -142.520000 0.000000 -26.120000 -0.739906 16.340011
32.957200 88.724000 4.867160 -144.710000 0.000000 -26.420001 -0.661314 19.009995
33.434900 89.385600 4.871940 -147.082000 0.000000 -26.680009 -0.586548 20.139982
33.912500 90.206900 4.852830 -149.295000 0.000000 -26.909994 -0.511807 20.159978
34.390200 90.891300 4.833730 -151.668000 0.000000 -27.099987 -0.437044 20.059997
34.867800 91.552900 4.838500 -154.041000 0.000000 -27.260014 -0.362281 20.009978
35.345400 92.374300 4.848060 -156.231000 0.000000 -27.379991 -0.293275 19.989982
35.823100 92.876200 4.843280 -158.467000 0.000000 -27.489999 -0.231952 19.989982
36.300700 93.720300 4.843280 -160.999000 0.000000 -27.560015 -0.180198 19.989982
36.778400 94.199400 4.838500 -163.212000 0.000000 -27.620003 -0.126518 20.000009
37.256000 94.724100 4.819400 -165.767000 0.000000 -27.650026 -0.084352 20.000009
37.733600 95.545400 4.824170 -167.957000 0.000000 -27.659996 -0.026840 20.000009
38.211300 96.047300 4.805070 -170.193000 0.000000 -27.650026 0.013399 20.000009
38.688900 96.686100 4.800290 -172.246000 0.000000 -27.620003 0.049828 20.000009
39.166600 97.210800 4.790740 -174.802000 0.000000 -27.569984 0.090088 20.000009
39.644200 97.553100 4.805070 -177.197000 0.000000 -27.509996 0.126496 20.000009
40.121800 98.374400 4.809840 -179.387000 0.000000 -27.410014 0.174420 20.000009
40.599500 98.716600 4.848060 -181.805000 0.000000 -27.300007 0.220417 20.000009
41.077100 99.401000 4.843280 -184.178000 0.000000 -27.179972 0.262603 20.000009
41.554800 99.880100 4.838500 -186.391000 0.000000 -27.029972 0.297106 20.000009
42.032400 100.382000 4.843280 -188.627000 0.000000 -26.870002 0.335440 20.000009
42.510000 101.066000 4.857610 -191.000000 0.000000 -26.689978 0.369943 20.000009
42.987700 101.568000 4.848060 -193.555000 0.000000 -26.499986 0.402520 20.000009
43.465300 101.933000 4.848060 -195.950000 0.000000 -26.289997 0.431287 20.000009
43.943000 102.572000 4.828950 -198.004000 0.000000 -26.069981 0.452369 20.000009
44.420600 102.914000 4.862390 -200.399000 0.000000 -25.839995 0.488777 20.000009
44.898300 103.439000 4.867160 -202.954000 0.000000 -25.599983 0.507955 20.000009
45.375900 104.101000 4.871940 -205.327000 0.000000 -25.350002 0.536700 20.000009
45.853500 104.443000 4.876710 -207.403000 0.000000 -25.080024 0.557783 20.000009
46.331200 105.105000 4.891040 -209.776000 0.000000 -24.809989 0.582698 20.000009
46.808800 105.766000 4.886270 -212.148000 0.000000 -24.520015 0.609535 20.000009
47.286500 106.131000 4.881490 -214.567000 0.000000 -24.220015 0.636378 20.000009
47.764100 106.633000 4.881490 -217.099000 0.000000 -23.920014 0.649797 20.000009
48.241700 107.295000 4.871940 -219.152000 0.000000 -23.609986 0.661291 20.000009
48.719400 107.637000 4.862390 -221.548000 0.000000 -23.289990 0.672807 20.000009
49.197000 108.162000 4.867160 -224.103000 0.000000 -22.969993 0.682376 20.000009
49.674700 108.664000 4.895820 -226.339000 0.000000 -22.640026 0.699627 20.000009
50.152300 109.325000 4.910150 -228.711000 0.000000 -22.299976 0.714971 20.000009
50.629900 109.987000 4.910150 -231.084000 0.000000 -21.950013 0.739889 20.000009
51.107600 110.306000 4.910150 -233.160000 0.000000 -21.590024 0.764801 20.000009
51.585200 110.694000 4.900600 -235.875000 0.000000 -21.220008 0.789713 20.000009
52.062900 111.356000 4.900600 -238.248000 0.000000 -20.829995 0.806965 20.000009
52.540500 111.857000 4.910150 -240.483000 0.000000 -20.439983 0.828067 20.000009
53.018200 112.519000 4.910150 -242.856000 0.000000 -20.050028 0.839561 20.000009
53.495800 113.204000 4.891040 -245.229000 0.000000 -19.640019 0.856813 20.000009
53.973400 113.865000 4.905370 -247.601000 0.000000 -19.230011 0.872139 20.000009
54.451100 114.390000 4.929260 -250.157000 0.000000 -18.820002 0.879823 20.000009
54.928700 114.892000 4.924480 -252.392000 0.000000 -18.400024 0.893224 20.000009
55.406400 115.576000 4.934030 -255.084000 0.000000 -17.979989 0.900907 20.000009
55.884000 116.101000 4.938810 -257.640000 0.000000 -17.560011 0.900907 20.000009
56.361600 116.922000 4.938810 -259.830000 0.000000 -17.130006 0.914326 20.000009
56.839300 117.447000 4.948360 -262.385000 0.000000 -16.689974 0.927728 20.000009
57.316900 118.086000 4.938810 -264.438000 0.000000 -16.260027 0.931578 20.000009
57.794600 118.610000 4.929260 -266.993000 0.000000 -15.819995 0.935411 20.000009
58.272200 119.272000 4.924480 -269.366000 0.000000 -15.369994 0.950738 20.000009
58.749800 120.093000 4.929260 -271.556000 0.000000 -14.919993 0.962231 20.000009
59.227500 120.755000 4.929260 -273.929000 0.000000 -14.460022 0.973742 20.000009
59.705100 121.439000 4.938810 -276.301000 0.000000 -13.999995 0.979483 20.000009
60.182800 122.101000 4.953140 -278.674000 0.000000 -13.540024 0.985235 20.000009
60.660400 122.945000 4.953140 -281.206000 0.000000 -13.090023 0.985235 20.000009
61.138000 123.584000 4.938810 -283.260000 0.000000 -12.629995 0.985235 20.000009
61.615700 124.268000 4.948360 -285.632000 0.000000 -12.170025 0.987166 20.000009
62.093300 124.930000 4.943580 -288.005000 0.000000 -11.679974 0.989068 20.000009
62.571000 125.774000 4.934030 -290.537000 0.000000 -11.209977 1.013981 20.000009
63.048600 126.436000 4.924480 -292.910000 0.000000 -10.719983 1.035088 20.000009
63.526300 127.257000 4.934030 -295.123000 0.000000 -10.229990 1.048484 20.000009
64.003900 127.941000 4.929260 -297.496000 0.000000 -9.739996 1.050415 20.000009
64.481500 128.900000 4.938810 -299.526000 0.000000 -9.250003 1.054242 20.000009
64.959200 129.424000 4.943580 -302.059000 0.000000 -8.760009 1.050415 20.000009
65.436800 130.405000 4.953140 -304.408000 0.000000 -8.270016 1.048484 20.000009
65.914500 131.227000 4.938810 -306.621000 0.000000 -7.780022 1.050415 20.000009
66.392100 132.230000 4.934030 -308.971000 0.000000 -7.280002 1.056167 20.000009
66.869700 132.892000 4.938810 -311.344000 0.000000 -6.779981 1.065736 20.000009
67.347400 133.850000 4.924480 -313.374000 0.000000 -6.269992 1.077252 20.000009
67.825000 134.694000 4.910150 -315.884000 0.000000 -5.760002 1.084913 20.000009
68.302700 135.675000 4.919700 -317.914000 0.000000 -5.240003 1.094504 20.000009
68.780300 136.679000 4.924480 -320.584000 0.000000 -4.730002 1.104095 20.000009
69.257900 137.637000 4.924480 -322.614000 0.000000 -4.210002 1.107923 20.000009
69.735600 138.459000 4.919700 -324.827000 0.000000 -3.679999 1.113658 20.000009
70.213200 139.280000 4.924480 -327.017000 0.000000 -3.150002 1.115589 20.000009
70.690900 140.284000 4.910150 -329.367000 0.000000 -2.640000 1.119416 20.000009
71.168500 141.425000 4.910150 -331.557000 0.000000 -2.099999 1.117491 20.000009
71.646100 142.406000 4.914930 -333.907000 0.000000 -1.570002 1.117491 20.000009
72.123800 143.409000 4.905370 -336.257000 0.000000 -1.039999 1.132841 20.000009
72.601400 144.368000 4.895820 -338.287000 0.000000 -0.510000 1.150092 20.000009
73.079100 145.508000 4.900600 -340.455000 0.000000 0.030000 1.159678 20.000009
73.556700 146.330000 4.886270 -342.668000 0.000000 0.589998 1.165413 20.000009
74.034400 147.630000 4.881490 -344.995000 0.000000 1.140003 1.173097 20.000009
74.512000 148.930000 4.871940 -346.980000 0.000000 1.679998 1.178838 20.000009
74.989600 149.889000 4.852830 -349.010000 0.000000 2.229998 1.180763 20.000009
75.467300 151.029000 4.852830 -351.200000 0.000000 2.780003 1.182665 20.000009
75.944900 152.033000 4.857610 -353.550000 0.000000 3.340000 1.180763 20.000009
76.422600 153.311000 4.838500 -355.558000 0.000000 3.899998 1.186498 20.000009
76.900200 154.429000 4.838500 -357.406000 0.000000 4.460001 1.194182 20.000009
77.377800 155.592000 4.833730 -359.892000 0.000000 5.030002 1.199917 20.000009
77.855500 156.870000 4.814620 -361.900000 0.000000 5.590000 1.199917 20.000009
78.333100 157.988000 4.809840 -363.771000 0.000000 6.150014 1.205675 20.000009
78.810800 159.311000 4.833730 -366.075000 0.000000 6.719993 1.213336 20.000009
79.288400 160.566000 4.809840 -367.763000 0.000000 7.290029 1.211433 20.000009
79.766000 162.026000 4.814620 -369.908000 0.000000 7.860007 1.217169 20.000009
80.243700 163.007000 4.790740 -371.938000 0.000000 8.429985 1.207600 20.000009
80.721300 164.284000 4.776410 -373.946000 0.000000 9.000021 1.219094 20.000009
81.199000 165.562000 4.757300 -375.953000 0.000000 9.589996 1.230587 20.000009
81.676600 166.862000 4.742980 -377.961000 0.000000 10.170001 1.242104 20.000009
82.154300 168.482000 4.738200 -379.946000 0.000000 10.759976 1.247839 20.000009
82.631900 169.577000 4.723870 -381.794000 0.000000 11.339981 1.255505 20.000009
83.109500 171.197000 4.714320 -383.779000 0.000000 11.930013 1.253597 20.000009
83.587200 172.155000 4.719090 -385.809000 0.000000 12.530014 1.253597 20.000009
84.064800 173.592000 4.709540 -387.634000 0.000000 13.119989 1.259356 20.000009
84.542500 175.030000 4.709540 -389.459000 0.000000 13.719990 1.263189 20.000009
85.020100 176.650000 4.699990 -391.444000 0.000000 14.310022 1.263189 20.000009
85.497700 177.927000 4.690430 -393.429000 0.000000 14.890027 1.263189 20.000009
85.975400 179.364000 4.671330 -395.277000 0.000000 15.480002 1.261263 20.000009
86.453000 181.121000 4.661780 -397.079000 0.000000 16.069976 1.255505 20.000009
86.930700 182.399000 4.657000 -398.768000 0.000000 16.649982 1.244012 20.000009
87.408300 183.836000 4.657000 -400.593000 0.000000 17.229987 1.238253 20.000009
87.885900 185.273000 4.657000 -402.418000 0.000000 17.820019 1.240179 20.000009
88.363600 186.847000 4.652220 -404.083000 0.000000 18.420020 1.245937 20.000009
88.841200 188.285000 4.652220 -405.908000 0.000000 19.000025 1.255505 20.000009
89.318900 190.041000 4.647450 -407.711000 0.000000 19.609996 1.265091 20.000009
89.796500 191.638000 4.642670 -409.376000 0.000000 20.200028 1.267016 19.859978
90.274100 193.030000 4.623560 -410.882000 0.000000 20.809999 1.272757 18.030008
90.751800 194.787000 4.618790 -412.684000 0.000000 21.390004 1.268924 14.930020
91.229400 196.201000 4.609240 -414.190000 0.000000 21.970009 1.255505 11.760016
91.707100 197.821000 4.599680 -416.175000 0.000000 22.539988 1.234420 8.559989
92.184700 199.395000 4.599680 -417.817000 0.000000 23.090027 1.203750 5.569998
92.662400 201.129000 4.604460 -419.300000 0.000000 23.620013 1.167338 2.420002
93.140000 202.863000 4.594910 -420.783000 0.000000 24.119976 1.115589 -0.769998
93.617600 204.460000 4.594910 -422.449000 0.000000 24.589973 1.060001 -3.929998
94.095300 206.353000 4.580580 -424.091000 0.000000 25.030005 0.985235 -7.110005
94.572900 207.928000 4.585350 -425.414000 0.000000 25.420017 0.918159 -10.269982
95.050600 209.662000 4.590130 -426.897000 0.000000 25.780007 0.845319 -13.450012
95.528200 211.213000 4.561470 -428.243000 0.000000 26.109973 0.768634 -16.620016
96.005800 213.129000 4.571020 -429.863000 0.000000 26.400004 0.693892 -19.250007
96.483500 214.840000 4.547140 -431.027000 0.000000 26.669982 0.622960 -20.190001
96.961100 216.734000 4.523260 -432.669000 0.000000 26.889998 0.552047 -20.159978
97.438800 218.627000 4.523260 -433.970000 0.000000 27.090018 0.481114 -20.029974
97.916400 220.179000 4.528040 -435.316000 0.000000 27.249987 0.423603 -20.000009
98.394000 222.209000 4.518480 -436.434000 0.000000 27.390018 0.360354 -20.000009
98.871700 223.761000 4.518480 -437.780000 0.000000 27.500026 0.304769 -20.000009
99.349300 225.814000 4.518480 -439.240000 0.000000 27.589980 0.243426 -20.000009
99.827000 227.388000 4.518480 -440.563000 0.000000 27.640000 0.189766 -20.000009
100.305000 229.419000 4.528040 -441.704000 0.000000 27.650026 0.124591 -20.000009
100.782000 231.289000 4.528040 -443.027000 0.000000 27.670023 0.070911 -20.000009
101.260000 233.023000 4.537590 -444.510000 0.000000 27.640000 0.021083 -20.000009
101.738000 234.917000 4.523260 -445.810000 0.000000 27.609977 -0.021104 -20.000009
102.215000 236.628000 4.537590 -446.974000 0.000000 27.540019 -0.067101 -20.000009
102.693000 238.635000 4.542370 -448.114000 0.000000 27.470003 -0.101604 -20.000009
103.170000 240.369000 4.537590 -449.597000 0.000000 27.370022 -0.138012 -20.000009
103.648000 242.400000 4.542370 -450.738000 0.000000 27.249987 -0.180198 -20.000009
104.126000 244.430000 4.537590 -451.879000 0.000000 27.119983 -0.216606 -20.000009
104.603000 246.141000 4.556700 -453.019000 0.000000 26.969983 -0.256867 -20.000009
105.081000 248.035000 4.556700 -454.343000 0.000000 26.810013 -0.287538 -20.000009
105.559000 249.746000 4.571020 -455.506000 0.000000 26.640016 -0.318210 -20.000009
106.036000 251.776000 4.575800 -456.647000 0.000000 26.450024 -0.343124 -20.000009
106.514000 253.761000 4.575800 -457.445000 0.000000 26.250004 -0.366133 -20.000009
106.992000 255.678000 4.580580 -459.088000 0.000000 26.060011 -0.383384 -20.000009
107.469000 257.571000 4.575800 -460.388000 0.000000 25.839995 -0.400636 -20.000009
107.947000 259.419000 4.590130 -461.392000 0.000000 25.610010 -0.429381 -20.000009
108.425000 261.290000 4.590130 -462.693000 0.000000 25.359971 -0.448538 -20.000009
108.902000 263.161000 4.604460 -463.674000 0.000000 25.109990 -0.479209 -20.000009
109.380000 265.031000 4.604460 -464.997000 0.000000 24.840012 -0.507976 -20.000009
109.857000 266.925000 4.614010 -466.297000 0.000000 24.560008 -0.542479 -20.000009
110.335000 269.092000 4.618790 -467.255000 0.000000 24.260007 -0.571224 -20.000009
110.813000 271.145000 4.637890 -468.716000 0.000000 23.949980 -0.598065 -20.000009
111.290000 272.857000 4.647450 -469.879000 0.000000 23.640009 -0.613391 -20.000009
111.768000 274.887000 4.647450 -471.020000 0.000000 23.329982 -0.632568 -20.000009
112.246000 276.598000 4.657000 -472.183000 0.000000 23.000016 -0.645987 -20.000009
112.723000 278.651000 4.657000 -473.643000 0.000000 22.640026 -0.668974 -20.000009
113.201000 280.659000 4.671330 -474.465000 0.000000 22.310003 -0.686226 -20.000009
113.679000 282.712000 4.671330 -475.925000 0.000000 21.950013 -0.697742 -20.000009
114.156000 284.583000 4.680880 -477.225000 0.000000 21.590024 -0.714994 -20.000009
114.634000 286.454000 4.690430 -478.206000 0.000000 21.220008 -0.732246 -20.000009
115.111000 288.644000 4.695210 -479.507000 0.000000 20.840022 -0.751400 -20.000009
115.589000 290.355000 4.695210 -480.670000 0.000000 20.450010 -0.768652 -20.000009
116.067000 292.568000 4.695210 -481.948000 0.000000 20.059997 -0.782070 -20.000009
116.544000 294.279000 4.699990 -483.111000 0.000000 19.669985 -0.791662 -20.000009
117.022000 296.309000 4.699990 -484.252000 0.000000 19.250007 -0.806988 -20.000009
117.500000 298.043000 4.690430 -485.735000 0.000000 18.839998 -0.818505 -20.000009
