time x0G u y0G v psi r delta 
[s] [m] [m/s] [m] [m/s] [deg] [deg/s] [deg/s] [deg] 
0.000000 0.000000 1.086813 0.000000 0.000000 0.000000 0.000000 0.000000
0.096950 0.112792 1.089720 0.007519 0.000000 -0.030000 0.000000 0.000000
0.193900 0.226524 1.086813 0.007519 0.000000 -0.060000 0.009489 -0.990002
0.290850 0.331797 1.088751 0.004700 0.000000 -0.100000 -0.094378 -3.820001
0.387800 0.446469 1.084872 0.003760 0.000000 -0.140000 -0.188860 -6.830001
0.484750 0.560201 1.089720 0.002820 0.000000 -0.200000 -0.339969 -9.799985
0.581702 0.674872 1.087781 0.001880 0.000000 -0.280000 -0.491077 -12.799992
0.678652 0.789544 1.089720 0.000940 0.000000 -0.370000 -0.651571 -15.819995
0.775602 0.903275 1.089720 0.000000 0.000000 -0.490000 -0.906547 -18.870021
0.872552 1.008549 1.089720 -0.000940 0.000000 -0.619998 -1.152139 -21.749994
0.969502 1.123220 1.087781 -0.001880 0.000000 -0.799998 -1.501493 -24.780024
1.066452 1.236952 1.085843 -0.002820 0.000000 -1.000000 -1.832073 -27.809996
1.163402 1.351627 1.085843 -0.003760 0.000000 -1.240001 -2.219180 -30.799977
1.260352 1.455018 1.084872 0.001880 0.000000 -1.520000 -2.606390 -33.669979
1.357302 1.567811 1.082934 0.010339 0.000000 -1.829999 -3.003088 -35.089998
1.454252 1.682482 1.076148 0.009399 0.000000 -2.180001 -3.371318 -35.169983
1.551204 1.798097 1.076148 0.000000 0.000000 -2.570002 -3.711293 -35.059975
1.648154 1.910885 1.071299 0.008459 0.000000 -2.989997 -4.089007 -34.999986
1.745104 2.023677 1.071299 0.016919 0.000000 -3.439998 -4.410097 -34.990017
1.842054 2.128951 1.069361 0.014099 0.000000 -3.929998 -4.750072 -34.990017
1.939004 2.243622 1.066452 0.013159 0.000000 -4.439999 -5.023909 -34.990017
2.035963 2.347017 1.063544 0.020679 0.000000 -4.980000 -5.269518 -34.990017
2.132905 2.462628 1.060635 0.010339 0.000000 -5.539998 -5.477245 -34.990017
2.229846 2.567901 1.059667 0.007519 0.000000 -6.119991 -5.713342 -34.999986
2.326809 2.682573 1.056758 0.006580 0.000000 -6.719993 -5.902213 -34.999986
2.423751 2.786907 1.050941 0.004700 0.000000 -7.339990 -6.119426 -34.999986
2.520713 2.911919 1.048032 -0.002820 0.000000 -7.979984 -6.336666 -34.999986
2.617655 3.007791 1.044153 -0.007519 0.000000 -8.639974 -6.534909 -34.999986
2.714597 3.122462 1.039306 -0.007519 0.000000 -9.320018 -6.733237 -34.999986
2.811559 3.227736 1.039306 -0.010339 0.000000 -10.020001 -6.950477 -34.999986
2.908501 3.341468 1.034459 -0.011279 0.000000 -10.739979 -7.148720 -34.999986
3.005463 3.448620 1.029612 -0.022558 0.000000 -11.480012 -7.318707 -34.999986
3.102405 3.562352 1.025733 -0.023498 0.000000 -12.230013 -7.488695 -34.999986
3.199367 3.658223 1.020886 -0.027258 0.000000 -13.000011 -7.620913 -34.999986
3.296309 3.772899 1.017977 -0.028198 0.000000 -13.779979 -7.800385 -34.999986
3.393251 3.873471 1.015069 -0.060156 0.000000 -14.580000 -7.942003 -34.999986
3.490213 3.979684 1.008283 -0.071435 0.000000 -15.400017 -8.102619 -34.999986
3.587155 4.084954 1.004404 -0.074255 0.000000 -16.219977 -8.215868 -34.999986
3.684117 4.191167 0.998587 -0.085534 0.000000 -17.059990 -8.366971 -34.999986
3.781059 4.288934 0.993740 -0.098693 0.000000 -17.909973 -8.451965 -34.999986
3.878001 4.402645 0.987922 -0.099633 0.000000 -18.769983 -8.565327 -34.999986
3.974963 4.503214 0.982105 -0.131591 0.000000 -19.640019 -8.669205 -34.999986
4.071905 4.609426 0.977258 -0.142870 0.000000 -20.509998 -8.706945 -34.999986
4.168867 4.707193 0.971441 -0.156029 0.000000 -21.390004 -8.848564 -34.999986
4.265809 4.815302 0.968532 -0.176708 0.000000 -22.279980 -8.867533 -34.999986
4.362751 4.913975 0.962717 -0.199266 0.000000 -23.179982 -8.971411 -34.999986
4.459713 5.013596 0.956899 -0.231224 0.000000 -24.079984 -9.009151 -34.999986
4.556655 5.120756 0.951082 -0.242503 0.000000 -24.990013 -9.065776 -34.999986
4.653617 5.217576 0.944295 -0.255662 0.000000 -25.899984 -9.150769 -34.999986
4.750559 5.309698 0.937509 -0.297959 0.000000 -26.819983 -9.207507 -34.999986
4.847501 5.408372 0.931692 -0.320518 0.000000 -27.750008 -9.283016 -34.999986
4.944463 5.507086 0.925874 -0.343076 0.000000 -28.679975 -9.349125 -34.999986
5.041405 5.605760 0.919089 -0.365634 0.000000 -29.610000 -9.396379 -34.999986
5.138367 5.696935 0.913271 -0.398532 0.000000 -30.549995 -9.415235 -34.999986
5.235309 5.795649 0.911333 -0.421090 0.000000 -31.489990 -9.462488 -34.999986
5.332271 5.894323 0.901637 -0.443651 0.000000 -32.429984 -9.519113 -34.999986
5.429213 5.993037 0.899698 -0.465269 0.000000 -33.380005 -9.575737 -34.999986
5.526155 6.074778 0.891943 -0.500045 0.000000 -34.339996 -9.651331 -34.999986
5.623117 6.175387 0.884187 -0.532004 0.000000 -35.299987 -9.698471 -34.999986
5.720059 6.264667 0.877399 -0.555500 0.000000 -36.259978 -9.755209 -34.999986
5.817022 6.356790 0.871582 -0.597800 0.000000 -37.229995 -9.792978 -34.999986
5.913963 6.447965 0.861888 -0.631637 0.000000 -38.200013 -9.802462 -34.999986
6.010905 6.530653 0.858979 -0.674872 0.000000 -39.169973 -9.764609 -34.999986
6.107868 6.619974 0.851223 -0.699312 0.000000 -40.130021 -9.783465 -34.999986
6.204809 6.711149 0.845406 -0.732210 0.000000 -41.099982 -9.811834 -34.999986
6.301772 6.786338 0.839589 -0.786725 0.000000 -42.069999 -9.811834 -34.999986
6.398714 6.877513 0.832803 -0.820563 0.000000 -43.040017 -9.840203 -34.999986
6.495655 6.960201 0.826016 -0.863802 0.000000 -44.009977 -9.811834 -34.999986
6.592618 7.032589 0.821169 -0.900457 0.000000 -44.979994 -9.821318 -34.999986
6.689560 7.114370 0.813413 -0.934295 0.000000 -45.950012 -9.792978 -34.999986
6.786522 7.196152 0.803717 -0.969071 0.000000 -46.919972 -9.792978 -34.999986
6.883464 7.271341 0.798869 -1.023587 0.000000 -47.889990 -9.821318 -34.999986
6.980426 7.355925 0.796931 -1.077163 0.000000 -48.860007 -9.783465 -34.999986
7.077368 7.428312 0.789175 -1.112883 0.000000 -49.819998 -9.811834 -34.999986
7.174310 7.503502 0.785296 -1.168338 0.000000 -50.790016 -9.802462 -34.999986
7.271272 7.575890 0.780449 -1.204058 0.000000 -51.759976 -9.783465 -34.999986
7.368214 7.650132 0.769785 -1.249172 0.000000 -52.729993 -9.755209 -34.999986
7.465176 7.715928 0.770755 -1.305570 0.000000 -53.689984 -9.707984 -34.999986
7.562118 7.778881 0.762029 -1.343165 0.000000 -54.640006 -9.660731 -34.999986
7.659060 7.855966 0.752333 -1.407082 0.000000 -55.590027 -9.613478 -34.999986
7.756022 7.929301 0.746518 -1.452200 0.000000 -56.550018 -9.613478 -34.999986
7.852964 7.984756 0.737792 -1.501075 0.000000 -57.499752 -9.660731 -34.999986
7.949926 8.058998 0.735853 -1.546193 0.000000 -58.449717 -9.641847 -34.999986
8.046868 8.126689 0.727127 -1.611989 0.000000 -59.400253 -9.594622 -34.999986
8.143810 8.190590 0.724219 -1.658046 0.000000 -60.350218 -9.594622 -34.999986
8.240772 8.246045 0.718401 -1.706922 0.000000 -61.300182 -9.500228 -34.999986
8.337714 8.309039 0.713554 -1.744520 0.000000 -62.239832 -9.490744 -34.999986
8.434676 8.367296 0.704828 -1.811256 0.000000 -63.169743 -9.424635 -34.999986
8.531618 8.433092 0.700949 -1.867650 0.000000 -64.100226 -9.368010 -34.999986
8.628560 8.481048 0.691255 -1.926866 0.000000 -65.019824 -9.311385 -34.999986
8.725522 8.544949 0.682529 -1.972924 0.000000 -65.939994 -9.245248 -34.999986
8.822464 8.602299 0.673803 -2.031201 0.000000 -66.849851 -9.188538 -34.999986
8.919426 8.658660 0.667988 -2.088534 0.000000 -67.760281 -9.179138 -34.999986
9.016368 8.714115 0.666047 -2.136470 0.000000 -68.670138 -9.198023 -34.999986
9.113330 8.760176 0.662170 -2.186289 0.000000 -69.579995 -9.198023 -34.999986
9.210272 8.809080 0.656353 -2.254903 0.000000 289.509844 -9.188538 -34.999986
9.307214 8.855142 0.651506 -2.304721 0.000000 288.599987 -9.169654 -34.999986
9.404176 8.911503 0.646659 -2.362055 0.000000 287.699871 -9.131913 -34.999986
9.501118 8.959459 0.640842 -2.421271 0.000000 286.799754 -9.084660 -34.999986
9.598081 8.996127 0.633086 -2.472969 0.000000 285.900210 -9.037520 -34.999986
9.695022 9.043095 0.631145 -2.532185 0.000000 285.009834 -8.980782 -34.999986
9.791964 9.091051 0.625328 -2.590458 0.000000 284.120030 -8.961926 -34.999986
9.888927 9.137113 0.625328 -2.640277 0.000000 283.239967 -8.924158 -34.999986
9.985868 9.176582 0.621451 -2.710770 0.000000 282.359904 -8.876933 -34.999986
10.082831 9.223591 0.620481 -2.769986 0.000000 281.479841 -8.829679 -34.999986
10.179773 9.249876 0.619513 -2.813225 0.000000 280.610091 -8.791939 -34.999986
10.276714 9.287492 0.615634 -2.873381 0.000000 279.739768 -8.791939 -34.999986
10.373677 9.326014 0.607878 -2.934476 0.000000 278.860278 -8.801423 -34.999986
10.470619 9.362681 0.603031 -2.985234 0.000000 277.989955 -8.791939 -34.999986
10.567581 9.402151 0.599152 -3.055727 0.000000 277.120205 -8.725830 -34.999986
10.664523 9.440714 0.592367 -3.115882 0.000000 276.260195 -8.669205 -34.999986
10.761485 9.469842 0.585579 -3.177917 0.000000 275.409926 -8.574699 -34.999986
10.858427 9.507457 0.583641 -3.238073 0.000000 274.560230 -8.565327 -34.999986
10.955369 9.534690 0.580732 -3.291649 0.000000 273.709960 -8.536958 -34.999986
11.052331 9.565714 0.578793 -3.362146 0.000000 272.860264 -8.574699 -34.999986
11.149273 9.592988 0.574915 -3.415722 0.000000 272.009994 -8.536958 -34.999986
11.246235 9.622116 0.569097 -3.477756 0.000000 271.170038 -8.480333 -34.999986
11.343177 9.640903 0.568129 -3.540734 0.000000 270.319769 -8.499218 -34.999986
11.440119 9.670031 0.562312 -3.602769 0.000000 269.479813 -8.480333 -34.999986
11.537081 9.697306 0.559403 -3.655405 0.000000 268.639857 -8.461449 -34.999986
11.634023 9.726434 0.553586 -3.717440 0.000000 267.799900 -8.433080 -34.999986
11.730985 9.746168 0.546800 -3.781357 0.000000 266.970258 -8.366971 -34.999986
11.827927 9.773443 0.548739 -3.833994 0.000000 266.140042 -8.319746 -34.999986
11.924869 9.793177 0.548739 -3.896968 0.000000 265.320139 -8.300862 -34.999986
12.021831 9.812912 0.547768 -3.960885 0.000000 264.500237 -8.263093 -34.999986
12.118773 9.830793 0.547768 -4.015400 0.000000 263.679761 -8.225353 -34.999986
12.215735 9.858026 0.536134 -4.068037 0.000000 262.859858 -8.196984 -34.999986
12.312677 9.868367 0.530318 -4.132910 0.000000 262.050269 -8.111990 -34.999986
12.409619 9.885300 0.527410 -4.178024 0.000000 261.249847 -8.093134 -34.999986
12.506581 9.905982 0.526440 -4.250371 0.000000 260.440258 -8.093134 -34.999986
12.603523 9.922874 0.521592 -4.295485 0.000000 259.639836 -8.102619 -34.999986
12.700485 9.933215 0.520622 -4.360374 0.000000 258.830246 -8.074250 -34.999986
12.797427 9.943556 0.523531 -4.425222 0.000000 258.029824 -8.083621 -34.999986
12.894389 9.951096 0.521592 -4.472190 0.000000 257.229975 -8.064765 -34.999986
12.991331 9.970831 0.523531 -4.535185 0.000000 256.430126 -8.055366 -34.999986
13.088273 9.979277 0.521592 -4.591587 0.000000 255.619964 -8.064765 -34.999986
13.185235 9.988670 0.519654 -4.647042 0.000000 254.829855 -8.017625 -34.999986
13.282177 9.999011 0.516745 -4.711890 0.000000 254.030006 -7.979772 -34.999986
13.379139 10.007498 0.510928 -4.767345 0.000000 253.239897 -7.932631 -34.999986
13.476081 10.015944 0.504141 -4.822800 0.000000 252.449788 -7.904263 -34.999986
13.573023 10.025338 0.505111 -4.879202 0.000000 251.669993 -7.875894 -34.999986
13.669985 10.033784 0.497355 -4.934657 0.000000 250.890197 -7.838153 -34.999986
13.766927 10.033784 0.498323 -4.992007 0.000000 250.109829 -7.809785 -34.999986
13.863890 10.042271 0.502202 -5.047462 0.000000 249.330033 -7.819269 -34.999986
13.960831 10.051664 0.502202 -5.102917 0.000000 248.559978 -7.781529 -34.999986
14.057773 10.062006 0.500264 -5.167765 0.000000 247.780182 -7.781529 -34.999986
14.154736 10.072347 0.496385 -5.233561 0.000000 247.010127 -7.772016 -34.999986
14.251677 10.068598 0.493476 -5.272083 0.000000 246.240072 -7.734275 -34.999986
14.348640 10.069504 0.488629 -5.337879 0.000000 245.470016 -7.724791 -34.999986
14.445582 10.067650 0.487659 -5.385836 0.000000 244.699961 -7.734275 -34.999986
14.542523 10.067650 0.484750 -5.443144 0.000000 243.929906 -7.734275 -34.999986
14.639486 10.065755 0.477965 -5.491101 0.000000 243.159851 -7.705907 -34.999986
14.736428 10.055414 0.480873 -5.549357 0.000000 242.389795 -7.668166 -34.999986
14.833390 10.064807 0.480873 -5.605760 0.000000 241.639793 -7.611541 -34.999986
14.930332 10.053560 0.486691 -5.654664 0.000000 240.880051 -7.602057 -34.999986
15.027294 10.052612 0.481843 -5.711973 0.000000 240.119736 -7.620913 -34.999986
15.124236 10.052612 0.478935 -5.769323 0.000000 239.359994 -7.639797 -34.999986
15.221178 10.041323 0.478935 -5.818186 0.000000 238.589939 -7.715391 -34.999986
15.318140 10.039428 0.476026 -5.866142 0.000000 237.819884 -7.762644 -34.999986
15.415082 10.030982 0.471179 -5.934740 0.000000 237.049829 -7.724791 -34.999986
15.512044 10.021589 0.469239 -5.993037 0.000000 236.279773 -7.668166 -34.999986
15.608986 10.017839 0.468270 -6.031559 0.000000 235.520031 -7.630398 -34.999986
15.705928 10.008405 0.469239 -6.089857 0.000000 234.770030 -7.526548 -34.999986
15.802890 9.997157 0.470209 -6.139667 0.000000 234.020028 -7.526548 -34.999986
15.899832 10.005603 0.470209 -6.195122 0.000000 233.270026 -7.526548 -34.999986
15.996794 9.983973 0.469239 -6.236445 0.000000 232.520024 -7.517063 -34.999986
16.093736 9.974580 0.468270 -6.295691 0.000000 231.770022 -7.507664 -34.999986
16.190678 9.961437 0.466330 -6.335160 0.000000 231.029761 -7.507664 -34.999986
16.287640 9.950148 0.466330 -6.384970 0.000000 230.279759 -7.507664 -34.999986
16.384582 9.938860 0.463421 -6.434781 0.000000 229.529758 -7.517063 -34.999986
16.481544 9.920073 0.460513 -6.494026 0.000000 228.779756 -7.554804 -34.999986
16.578486 9.907836 0.457606 -6.534443 0.000000 228.029754 -7.554804 -34.999986
16.675448 9.888102 0.460513 -6.594595 0.000000 227.270012 -7.545432 -34.999986
16.772390 9.875906 0.461483 -6.635012 0.000000 226.520010 -7.517063 -34.999986
16.869332 9.864618 0.459544 -6.683874 0.000000 225.779749 -7.488695 -34.999986
16.966294 9.851434 0.458574 -6.724291 0.000000 225.029747 -7.488695 -34.999986
17.063236 9.842040 0.458574 -6.782548 0.000000 224.290058 -7.479295 -34.999986
17.160198 9.820452 0.457606 -6.823912 0.000000 223.549797 -7.441554 -34.999986
17.257140 9.799769 0.454697 -6.875618 0.000000 222.810108 -7.413185 -34.999986
17.354082 9.787533 0.451789 -6.915087 0.000000 222.069847 -7.347076 -34.999986
17.451044 9.766851 0.449848 -6.965845 0.000000 221.339899 -7.328192 -34.999986
17.547986 9.744314 0.446940 -7.008158 0.000000 220.609951 -7.365932 -34.999986
17.644948 9.720789 0.449848 -7.040129 0.000000 219.870262 -7.384817 -34.999986
17.838832 9.699201 0.451789 -7.138802 0.000000 218.389739 -7.450926 -34.999986
17.935794 9.666282 0.453727 -7.172627 0.000000 217.650051 -7.422670 -34.999986
18.032736 9.643746 0.452757 -7.213991 0.000000 216.909789 -7.365932 -34.999986
18.129699 9.623970 0.449848 -7.264750 0.000000 216.179841 -7.309308 -34.999986
18.226641 9.601434 0.446940 -7.306114 0.000000 215.449893 -7.299823 -34.999986
18.323582 9.577950 0.445001 -7.338991 0.000000 214.730258 -7.280967 -34.999986
18.420545 9.548780 0.445971 -7.390697 0.000000 213.999736 -7.280967 -34.999986
18.517487 9.534690 0.445971 -7.421721 0.000000 213.269788 -7.290451 -34.999986
18.614449 9.504614 0.446940 -7.474374 0.000000 212.539840 -7.309308 -34.999986
18.711391 9.482985 0.446940 -7.515697 0.000000 211.820205 -7.299823 -34.999986
18.808353 9.460448 0.448880 -7.557062 0.000000 211.090257 -7.280967 -34.999986
18.905295 9.428477 0.448880 -7.590928 0.000000 210.359736 -7.262083 -34.999986
19.002237 9.404993 0.446940 -7.622858 0.000000 209.640101 -7.233714 -34.999986
19.099199 9.384311 0.446940 -7.673616 0.000000 208.919893 -7.214829 -34.999986
19.196141 9.360827 0.446940 -7.706534 0.000000 208.200258 -7.214829 -34.999986
19.293103 9.327909 0.440154 -7.740359 0.000000 207.480050 -7.195973 -34.999986
19.390045 9.306279 0.444033 -7.781724 0.000000 206.770155 -7.186574 -34.999986
19.486987 9.275255 0.444033 -7.824942 0.000000 206.049947 -7.195973 -34.999986
19.583949 9.242378 0.443063 -7.858809 0.000000 205.329739 -7.205458 -34.999986
19.680891 9.219801 0.442092 -7.900132 0.000000 204.610104 -7.214829 -34.999986
19.777853 9.196317 0.442092 -7.932103 0.000000 203.889896 -7.186574 -34.999986
19.874795 9.162492 0.443063 -7.956534 0.000000 203.170261 -7.224314 -34.999986
19.971737 9.131468 0.441124 -7.999794 0.000000 202.450053 -7.224314 -34.999986
20.068699 9.098550 0.438216 -8.033619 0.000000 201.729845 -7.205458 -34.999986
20.165641 9.065672 0.436275 -8.067444 0.000000 201.010210 -7.148720 -34.999986
20.262603 9.041241 0.436275 -8.090021 0.000000 200.299743 -7.167689 -34.999986
20.359626 9.008322 0.435307 -8.123846 0.000000 199.580108 -7.167689 -34.999986
20.456446 8.975445 0.433368 -8.157713 0.000000 198.870213 -7.167689 -34.999986
20.553469 8.941579 0.435307 -8.182144 0.000000 198.150005 -7.177089 -34.999986
20.650493 8.910597 0.436275 -8.225363 0.000000 197.440110 -7.129836 -34.999986
20.747313 8.877678 0.439184 -8.259188 0.000000 196.730216 -7.063727 -34.999986
20.844336 8.842905 0.438216 -8.283660 0.000000 196.030061 -7.025986 -34.999986
20.941156 8.811882 0.435307 -8.326879 0.000000 195.329907 -7.016586 -34.999986
21.038179 8.787451 0.436275 -8.349456 0.000000 194.620012 -7.044842 -34.999986
21.135202 8.752678 0.435307 -8.373888 0.000000 193.919858 -7.092095 -34.999986
21.232022 8.709418 0.436275 -8.400214 0.000000 193.209963 -7.120464 -34.999986
21.329045 8.666200 0.437245 -8.425593 0.000000 192.489755 -7.148720 -34.999986
21.426068 8.643622 0.435307 -8.466917 0.000000 191.779860 -7.167689 -34.999986
21.522888 8.619191 0.435307 -8.490442 0.000000 191.060225 -7.148720 -34.999986
21.619912 8.575972 0.437245 -8.515821 0.000000 190.349758 -7.120464 -34.999986
21.716935 8.531806 0.438216 -8.542106 0.000000 189.639863 -7.129836 -34.999986
21.813755 8.497940 0.435307 -8.566579 0.000000 188.929968 -7.101580 -34.999986
21.910778 8.462220 0.435307 -8.581617 0.000000 188.220073 -7.082696 -34.999986
22.007801 8.428395 0.435307 -8.606048 0.000000 187.510179 -7.082696 -34.999986
22.104621 8.393622 0.437245 -8.630480 0.000000 186.810024 -7.082696 -34.999986
22.201644 8.349456 0.435307 -8.647413 0.000000 186.089816 -7.139320 -34.999986
22.298464 8.314642 0.435307 -8.671844 0.000000 185.379922 -7.186574 -34.999986
22.395487 8.280817 0.436275 -8.696276 0.000000 184.659714 -7.224314 -34.999986
22.492510 8.246992 0.435307 -8.720707 0.000000 183.929765 -7.233714 -34.999986
22.589331 8.211272 0.437245 -8.735745 0.000000 183.210130 -7.233714 -34.999986
22.686354 8.167106 0.435307 -8.762072 0.000000 182.489923 -7.195973 -34.999986
22.783377 8.131386 0.437245 -8.777109 0.000000 181.780028 -7.167689 -34.999986
22.880197 8.088126 0.436275 -8.803436 0.000000 181.059820 -7.158205 -34.999986
22.977220 8.054301 0.435307 -8.827868 0.000000 180.349925 -7.139320 -34.999986
23.074243 8.018581 0.435307 -8.842905 0.000000 179.640030 -7.110980 -34.999986
23.171063 7.982861 0.434337 -8.857943 0.000000 178.930136 -7.110980 -34.999986
23.268086 7.937747 0.435307 -8.874876 0.000000 178.220241 -7.120464 -34.999986
23.364906 7.892633 0.434337 -8.890821 0.000000 177.500033 -7.139320 -34.999986
23.461929 7.847520 0.435307 -8.907754 0.000000 176.790138 -7.148720 -34.999986
23.558953 7.821193 0.435307 -8.921844 0.000000 176.080244 -7.139320 -34.999986
23.655773 7.785473 0.435307 -8.936882 0.000000 175.360036 -7.120464 -34.999986
23.752796 7.730018 0.434337 -8.945369 0.000000 174.659881 -7.063727 -34.999986
23.849819 7.684904 0.437245 -8.962261 0.000000 173.949987 -7.054355 -34.999986
23.946639 7.651079 0.435307 -8.986734 0.000000 173.249832 -7.035471 -34.999986
24.043662 7.624753 0.435307 -9.000824 0.000000 172.550251 -6.978733 -34.999986
24.140685 7.578691 0.436275 -9.007375 0.000000 171.850096 -6.988218 -34.999986
24.237505 7.531683 0.437245 -9.014914 0.000000 171.149942 -6.988218 -34.999986
24.334528 7.486569 0.435307 -9.031847 0.000000 170.449787 -7.054355 -34.999986
24.431551 7.440508 0.436275 -9.039346 0.000000 169.739893 -7.073211 -34.999986
24.528372 7.416076 0.434337 -9.061923 0.000000 169.039738 -7.054355 -34.999986
