time x0G u y0G v phi p psi r RPS delta 
[s] [m] [m/s] [m] [m/s] [deg] [deg/s] [deg] [deg/s] [Hz] [deg] 
0.000000 0.000000 1.180977 0.000000 0.005452 0.093921 -0.017011 -0.112621 -0.027919 10.327077 0.818390
0.020115 0.023625 1.180977 0.000061 0.005525 0.093593 -0.017011 -0.116134 -0.027754 10.329713 0.817112
0.040082 0.047250 1.180563 0.000125 0.005750 0.093240 -0.038865 -0.119738 -0.028131 10.333635 0.820951
0.060048 0.070875 1.180637 0.000193 0.005766 0.092038 -0.087932 -0.122293 -0.028070 10.337421 0.819673
0.080015 0.094501 1.180732 0.000256 0.005350 0.089722 -0.100322 -0.124615 -0.027480 10.340869 0.818390
0.100130 0.118126 1.180476 0.000304 0.005304 0.088024 -0.077915 -0.126835 -0.026445 10.343980 0.819673
0.120097 0.141751 1.179478 0.000363 0.005817 0.086605 -0.075690 -0.128697 -0.025616 10.346549 0.818390
0.140064 0.165376 1.178429 0.000431 0.006011 0.084995 -0.091266 -0.129937 -0.024901 10.348645 0.818390
0.160030 0.189001 1.179170 0.000497 0.005978 0.082953 -0.072658 -0.131343 -0.024035 10.350065 0.819673
0.180145 0.212626 1.179791 0.000562 0.005903 0.082088 -0.036836 -0.132632 -0.023142 10.350876 0.818390
0.200112 0.236033 1.178306 0.000623 0.005938 0.081479 -0.045852 -0.133006 -0.022269 10.351011 0.819673
0.220079 0.259658 1.176317 0.000689 0.006562 0.080253 -0.072775 -0.133344 -0.021968 10.350538 0.819673
0.240194 0.283283 1.175825 0.000777 0.006921 0.078567 -0.087185 -0.133000 -0.021354 10.347631 0.817112
0.260160 0.306689 1.176594 0.000858 0.006846 0.076765 -0.096753 -0.133125 -0.020460 10.346076 0.817112
0.280127 0.330315 1.176807 0.000941 0.006972 0.074696 -0.120936 -0.133650 -0.019767 10.343912 0.813268
0.300094 0.353721 1.176005 0.001026 0.007042 0.071926 -0.135406 -0.133956 -0.019360 10.341343 0.822235
0.320209 0.377346 1.175688 0.001113 0.007297 0.069278 -0.116307 -0.134410 -0.019212 10.338368 0.817112
0.340176 0.400753 1.175838 0.001208 0.007493 0.067272 -0.111620 -0.134092 -0.019181 10.335055 0.814551
0.360142 0.424378 1.175147 0.001302 0.007492 0.064812 -0.131423 -0.133986 -0.019089 10.331607 0.818390
0.380109 0.447784 1.174354 0.001398 0.007617 0.062014 -0.135874 -0.134082 -0.018942 10.327956 0.817112
0.400224 0.471409 1.174567 0.001496 0.007738 0.059376 -0.144477 -0.134318 -0.018432 10.324304 0.820951
0.420191 0.494816 1.175360 0.001597 0.007527 0.056233 -0.158267 -0.135075 -0.018517 10.320653 0.818390
0.440158 0.518441 1.175827 0.001687 0.007302 0.053043 -0.163006 -0.135851 -0.018291 10.319098 0.818390
0.460125 0.541847 1.175307 0.001778 0.007110 0.049711 -0.152224 -0.136722 -0.018162 10.316191 0.819673
0.480239 0.565472 1.174868 0.001859 0.007374 0.046952 -0.150367 -0.138478 -0.017937 10.313487 0.822235
0.500206 0.588879 1.175890 0.001960 0.007756 0.043694 -0.157256 -0.139075 -0.017867 10.311053 0.817112
0.520173 0.612504 1.176265 0.002056 0.007350 0.040660 -0.161901 -0.140146 -0.018004 10.309024 0.820951
0.540140 0.635910 1.176755 0.002137 0.006925 0.037216 -0.163632 -0.141327 -0.018299 10.307266 0.822235
0.560255 0.659535 1.177709 0.002216 0.006688 0.034113 -0.143908 -0.142528 -0.018085 10.305914 0.822235
0.580221 0.683161 1.177642 0.002288 0.006464 0.031459 -0.125220 -0.143843 -0.018069 10.305035 0.822235
0.600188 0.706786 1.178462 0.002358 0.006481 0.029102 -0.126711 -0.145399 -0.018719 10.304427 0.817112
0.620303 0.730192 1.179244 0.002428 0.006483 0.026388 -0.180503 -0.147389 -0.019225 10.304291 0.820951
0.640270 0.753817 1.180198 0.002496 0.006371 0.021880 -0.212518 -0.148965 -0.019223 10.304156 0.819673
0.660237 0.777442 1.181801 0.002559 0.006157 0.017885 -0.185411 -0.150779 -0.019129 10.304494 0.819673
0.680203 0.801068 1.182029 0.002616 0.005802 0.014462 -0.170575 -0.152655 -0.019620 10.305238 0.824796
0.700318 0.824693 1.181687 0.002667 0.005758 0.011060 -0.164615 -0.154728 -0.020049 10.306252 0.820951
0.720285 0.848537 1.182159 0.002719 0.005742 0.007875 -0.160428 -0.155865 -0.020374 10.307604 0.814551
0.740252 0.872162 1.183254 0.002767 0.005789 0.004641 -0.160220 -0.156884 -0.020589 10.309227 0.818390
0.760219 0.895787 1.183878 0.002822 0.005992 0.001464 -0.148681 -0.157693 -0.020973 10.311120 0.814551
0.780333 0.919412 1.183700 0.002877 0.005774 -0.001308 -0.138817 -0.158272 -0.021184 10.313216 0.818390
0.800300 0.943037 1.183839 0.002923 0.005610 -0.004090 -0.144453 -0.159116 -0.021789 10.315583 0.824796
0.820267 0.966881 1.184403 0.002971 0.005674 -0.007088 -0.121784 -0.159252 -0.022129 10.318017 0.822235
0.840234 0.990506 1.183848 0.003017 0.005782 -0.008963 -0.085488 -0.159322 -0.022342 10.319166 0.824796
0.860349 1.014131 1.183246 0.003069 0.005938 -0.010508 -0.102377 -0.159167 -0.022923 10.321735 0.827357
0.880315 1.037975 1.183332 0.003124 0.006063 -0.013059 -0.102392 -0.159191 -0.023334 10.324372 0.826073
0.900282 1.061600 1.182635 0.003181 0.006177 -0.014605 -0.077005 -0.158861 -0.023762 10.327077 0.822235
0.920397 1.085226 1.181480 0.003240 0.006010 -0.016140 -0.061417 -0.158033 -0.024335 10.329781 0.828640
0.940364 1.108851 1.181241 0.003290 0.005915 -0.017062 -0.058538 -0.157701 -0.024439 10.332350 0.822235
0.960331 1.132476 1.181165 0.003347 0.006367 -0.018482 -0.056121 -0.157847 -0.024388 10.334920 0.824796
0.980297 1.156101 1.180167 0.003415 0.006677 -0.019308 -0.029001 -0.158190 -0.024517 10.337286 0.820951
1.000412 1.179726 1.179188 0.003483 0.006517 -0.019643 -0.016574 -0.159172 -0.024728 10.339450 0.827357
1.020379 1.203351 1.178936 0.003544 0.006325 -0.019971 -0.003510 -0.159736 -0.025118 10.341410 0.819673
1.040346 1.226758 1.178658 0.003605 0.006167 -0.019783 0.021733 -0.160884 -0.025734 10.344656 0.820951
1.060313 1.250383 1.177521 0.003660 0.006096 -0.019101 0.040513 -0.161953 -0.025927 10.346211 0.732584
1.080427 1.274008 1.176815 0.003714 0.006272 -0.018162 0.078939 -0.163706 -0.026179 10.347428 0.462347
1.100394 1.297414 1.176793 0.003776 0.006505 -0.015943 0.102797 -0.164808 -0.026939 10.348172 0.046107
1.120361 1.321040 1.176753 0.003839 0.006449 -0.014049 0.111590 -0.166598 -0.028084 10.348510 -0.253586
1.140328 1.344665 1.176438 0.003896 0.006122 -0.011478 0.131598 -0.168329 -0.029257 10.348442 -0.612194
1.160443 1.368071 1.176321 0.003946 0.005989 -0.008784 0.160540 -0.170248 -0.030676 10.347901 -0.869618
1.180410 1.391696 1.176378 0.003997 0.006160 -0.005055 0.158597 -0.172001 -0.032148 10.346819 -1.209020
1.200376 1.415103 1.176676 0.004051 0.006249 -0.002438 0.136125 -0.174424 -0.034155 10.345332 -1.535610
1.220343 1.438728 1.177852 0.004104 0.005991 0.000392 0.145319 -0.176402 -0.035970 10.343439 -1.875000
1.240458 1.462353 1.178877 0.004145 0.005571 0.003377 0.176299 -0.177453 -0.037345 10.339788 -2.204150
1.260425 1.485978 1.179016 0.004180 0.005544 0.007446 0.215647 -0.179538 -0.039165 10.337556 -2.515370
1.280392 1.509603 1.178289 0.004220 0.006037 0.012005 0.227763 -0.181028 -0.041392 10.334987 -2.845800
1.300506 1.533010 1.177647 0.004272 0.006408 0.016559 0.242159 -0.182525 -0.043956 10.332148 -3.178790
1.320473 1.556635 1.178345 0.004327 0.006659 0.021694 0.242757 -0.183572 -0.046583 10.329173 -3.454150
1.340440 1.580260 1.179889 0.004388 0.006700 0.026273 0.207391 -0.184339 -0.049436 10.326062 -3.793550
1.360407 1.603885 1.180532 0.004443 0.006583 0.029992 0.183658 -0.185729 -0.051806 10.322952 -4.126540
1.380522 1.627510 1.179754 0.004498 0.006841 0.033621 0.206956 -0.187157 -0.054997 10.319910 -4.450560
1.400488 1.651135 1.178743 0.004563 0.007464 0.038273 0.213182 -0.188539 -0.057891 10.317002 -4.797640
1.420455 1.674542 1.179317 0.004642 0.007960 0.042151 0.191880 -0.189828 -0.061446 10.314298 -5.137040
1.440422 1.698167 1.180856 0.004725 0.008035 0.045950 0.183692 -0.191236 -0.065010 10.311864 -5.411120
1.460537 1.721792 1.180454 0.004806 0.007842 0.049501 0.179919 -0.191707 -0.068714 10.309497 -5.781260
1.480504 1.745417 1.179146 0.004880 0.008075 0.053149 0.161999 -0.193160 -0.072746 10.307469 -6.083490
1.500470 1.769042 1.178099 0.004970 0.008506 0.055982 0.153639 -0.193994 -0.076734 10.305982 -6.362700
1.520437 1.792667 1.177151 0.005062 0.008684 0.059297 0.145326 -0.195395 -0.080634 10.304900 -6.732830
1.540552 1.816074 1.178658 0.005156 0.008931 0.061797 0.119661 -0.196692 -0.084466 10.304359 -6.997930
1.560519 1.839699 1.179840 0.005257 0.008878 0.064085 0.105663 -0.198234 -0.088300 10.304359 -7.320680
1.580486 1.863324 1.178868 0.005348 0.008849 0.066025 0.093313 -0.200034 -0.092230 10.304832 -7.671620
1.600600 1.886949 1.177460 0.005447 0.008989 0.067818 0.086632 -0.201932 -0.096461 10.305508 -7.971330
1.620567 1.910356 1.176182 0.005541 0.008830 0.069491 0.085279 -0.203897 -0.099876 10.306590 -8.282510
1.640534 1.933981 1.176290 0.005631 0.008753 0.071230 0.105647 -0.205969 -0.103504 10.308078 -8.575800
1.660501 1.957606 1.176685 0.005723 0.008697 0.073719 0.122878 -0.208703 -0.107829 10.310309 -8.933160
1.680616 1.981012 1.176663 0.005808 0.008539 0.076147 0.099404 -0.211690 -0.112365 10.312810 -9.211040
1.700582 2.004638 1.176416 0.005891 0.008191 0.077696 0.083055 -0.214878 -0.116467 10.315583 -9.545360
1.720549 2.028044 1.176379 0.005959 0.007676 0.079470 0.092036 -0.218413 -0.120810 10.318422 -9.818150
1.740516 2.051669 1.176807 0.006018 0.007694 0.081378 0.101540 -0.222383 -0.125078 10.321397 -9.861690
1.760631 2.075294 1.177064 0.006083 0.007822 0.083533 0.118803 -0.226285 -0.129099 10.324372 -9.861690
1.780598 2.098701 1.176588 0.006145 0.007620 0.086132 0.131807 -0.229870 -0.133423 10.327347 -9.864270
1.800565 2.122326 1.176542 0.006202 0.007275 0.088807 0.133204 -0.233958 -0.137981 10.328632 -9.864270
1.820531 2.145951 1.176613 0.006243 0.006669 0.091462 0.156701 -0.238534 -0.142341 10.329781 -9.861690
1.840646 2.169357 1.177009 0.006272 0.006406 0.095077 0.160864 -0.244839 -0.146413 10.330728 -9.857850
1.860613 2.192982 1.179435 0.006300 0.006392 0.097898 0.134114 -0.250419 -0.151164 10.332891 -9.868110
1.880580 2.216608 1.180374 0.006322 0.006226 0.100443 0.146572 -0.256050 -0.155471 10.334784 -9.865530
1.900547 2.240233 1.179413 0.006337 0.006601 0.103763 0.171760 -0.262620 -0.160043 10.336339 -9.865530
1.920661 2.263858 1.179994 0.006368 0.006852 0.107315 0.168863 -0.268764 -0.164670 10.337692 -9.869370
1.940628 2.287483 1.181461 0.006390 0.006551 0.110519 0.154806 -0.275397 -0.169147 10.338706 -9.864270
1.960595 2.311108 1.181644 0.006403 0.006461 0.113509 0.178643 -0.282099 -0.174229 10.339450 -9.869370
1.980710 2.334733 1.180949 0.006416 0.006650 0.117667 0.191305 -0.288438 -0.179332 10.339855 -9.868110
2.000677 2.358358 1.181057 0.006431 0.007468 0.121164 0.178954 -0.293897 -0.184378 10.341951 -9.865530
2.020643 2.381984 1.182168 0.006473 0.008431 0.124827 0.198093 -0.299050 -0.189480 10.343777 -9.861690
2.040610 2.405609 1.182550 0.006523 0.008586 0.129090 0.197716 -0.305001 -0.194506 10.345399 -9.861690
2.060725 2.429234 1.182236 0.006563 0.008637 0.132738 0.172257 -0.310320 -0.199242 10.345264 -9.860370
2.080692 2.452859 1.181241 0.006611 0.009042 0.135982 0.170900 -0.315589 -0.203955 10.345061 -9.857850
2.100659 2.476484 1.180324 0.006665 0.009418 0.139577 0.182979 -0.320544 -0.208913 10.344791 -9.857850
2.120625 2.500109 1.180569 0.006724 0.009872 0.143304 0.176512 -0.326150 -0.213629 10.344385 -9.855280
2.140740 2.523735 1.180821 0.006790 0.010215 0.146639 0.138806 -0.331488 -0.218292 10.343980 -9.855280
2.160707 2.547360 1.181508 0.006860 0.010444 0.148857 0.135304 -0.336442 -0.222965 10.343506 -9.855280
2.180674 2.570985 1.181593 0.006932 0.010728 0.152053 0.137547 -0.341475 -0.227387 10.343033 -9.864270
2.200641 2.594610 1.180492 0.007007 0.010918 0.154361 0.116368 -0.346425 -0.231851 10.340599 -9.862950
2.220755 2.618235 1.179861 0.007083 0.011475 0.156709 0.099205 -0.351523 -0.235676 10.338165 -9.862950
2.240722 2.641860 1.179833 0.007177 0.011935 0.158330 0.099113 -0.357203 -0.240327 10.335799 -9.864270
2.260689 2.665485 1.179325 0.007267 0.011715 0.160675 0.068713 -0.363002 -0.245309 10.334582 -9.861690
2.280656 2.689111 1.178920 0.007346 0.011603 0.161080 0.028525 -0.368327 -0.250368 10.333432 -9.862950
2.300771 2.712736 1.179206 0.007427 0.011408 0.161816 0.029117 -0.374395 -0.255516 10.332215 -9.864270
2.320737 2.736142 1.179444 0.007494 0.011205 0.162244 0.035446 -0.379945 -0.260487 10.330930 -9.857850
2.340704 2.759767 1.179632 0.007562 0.011192 0.163234 0.031261 -0.385905 -0.265089 10.329646 -9.862950
2.360819 2.783392 1.179646 0.007623 0.011148 0.163495 0.005578 -0.392462 -0.269463 10.328294 -9.857850
2.380786 2.807018 1.179658 0.007685 0.011135 0.163457 0.001174 -0.397958 -0.274453 10.326941 -9.865530
2.400753 2.830643 1.178862 0.007742 0.010702 0.163542 -0.025550 -0.403488 -0.279043 10.327144 -9.862950
2.420720 2.854268 1.178691 0.007781 0.009731 0.162435 -0.063156 -0.409186 -0.283277 10.327347 -9.861690
2.440834 2.877893 1.178734 0.007794 0.009077 0.161015 -0.043622 -0.415393 -0.287805 10.327550 -9.862950
2.460801 2.901299 1.177697 0.007803 0.009258 0.160689 -0.046739 -0.420966 -0.292565 10.327753 -9.865530
2.480768 2.924925 1.178698 0.007818 0.009851 0.159145 -0.087468 -0.427928 -0.297152 10.326265 -9.865530
2.500735 2.948550 1.179654 0.007844 0.009732 0.157190 -0.087763 -0.433381 -0.301242 10.324845 -9.864270
2.520849 2.972175 1.179506 0.007851 0.009215 0.155634 -0.087072 -0.439999 -0.305828 10.323493 -9.860370
2.540816 2.995800 1.179089 0.007851 0.009106 0.153706 -0.105636 -0.446917 -0.310252 10.322276 -9.860370
2.560783 3.019206 1.177907 0.007847 0.009249 0.151407 -0.128901 -0.454002 -0.315030 10.321194 -9.861690
2.580750 3.042832 1.177224 0.007847 0.009558 0.148548 -0.133710 -0.461224 -0.319920 10.320315 -9.860370
2.600865 3.066457 1.177193 0.007851 0.009840 0.146057 -0.134337 -0.468631 -0.324713 10.319369 -9.855280
2.620832 3.089863 1.177548 0.007855 0.010111 0.143173 -0.162679 -0.476656 -0.328883 10.318963 -9.857850
2.640798 3.113488 1.178104 0.007864 0.010568 0.139548 -0.158376 -0.484564 -0.333269 10.318828 -9.857850
2.660913 3.137113 1.177846 0.007879 0.010997 0.136836 -0.143280 -0.492949 -0.337611 10.318896 -9.856540
2.680880 3.160739 1.176644 0.007897 0.011287 0.133815 -0.147676 -0.501150 -0.341516 10.319234 -9.864270
2.700847 3.184145 1.175848 0.007919 0.011782 0.130928 -0.142600 -0.508967 -0.345074 10.319774 -9.868110
2.720814 3.207770 1.174698 0.007952 0.012480 0.128109 -0.141472 -0.517673 -0.349004 10.320518 -9.868110
2.740928 3.231176 1.173767 0.007993 0.013129 0.125267 -0.151048 -0.526129 -0.352712 10.321532 -9.865530
2.760895 3.254583 1.173458 0.008046 0.013475 0.122066 -0.163889 -0.534818 -0.356690 10.322749 -9.864270
2.780862 3.278208 1.172526 0.008096 0.013428 0.118709 -0.168043 -0.543882 -0.360883 10.324102 -9.862950
2.800829 3.301614 1.172445 0.008138 0.013693 0.115342 -0.155671 -0.553001 -0.364475 10.324304 -9.864270
2.820944 3.325021 1.172859 0.008190 0.014281 0.112481 -0.140079 -0.562399 -0.367753 10.326130 -9.857850
2.840910 3.348427 1.173210 0.008249 0.014913 0.109737 -0.137307 -0.572327 -0.371268 10.328023 -9.862950
2.860877 3.372052 1.172517 0.008317 0.015367 0.106987 -0.129785 -0.581094 -0.375566 10.329849 -9.864270
2.880844 3.395459 1.170565 0.008387 0.015554 0.104544 -0.109722 -0.590427 -0.379185 10.331742 -9.864270
2.900959 3.418865 1.170913 0.008457 0.015824 0.102597 -0.104029 -0.599755 -0.382798 10.333500 -9.869370
2.920926 3.442272 1.172532 0.008529 0.015565 0.100382 -0.113889 -0.608183 -0.386420 10.335122 -9.869370
2.940892 3.465678 1.172568 0.008582 0.015372 0.098040 -0.113712 -0.617763 -0.389799 10.336678 -9.865530
2.960859 3.489303 1.172112 0.008638 0.015715 0.095832 -0.096161 -0.626472 -0.393390 10.338030 -9.868110
2.980974 3.512709 1.172248 0.008698 0.015989 0.094192 -0.104177 -0.635038 -0.396876 10.339179 -9.870630
3.000941 3.536116 1.173242 0.008759 0.015956 0.091663 -0.137872 -0.643243 -0.400285 10.341546 -9.865530
3.020908 3.559522 1.173807 0.008809 0.015533 0.088676 -0.133437 -0.652083 -0.403838 10.341884 -9.869370
3.041022 3.583147 1.173377 0.008846 0.015087 0.086325 -0.115225 -0.661646 -0.407634 10.342019 -9.868110
3.060989 3.606554 1.173605 0.008870 0.015060 0.084066 -0.117509 -0.670028 -0.411024 10.341951 -9.868110
3.080956 3.629960 1.174400 0.008899 0.015355 0.081623 -0.155256 -0.678462 -0.414386 10.341681 -9.862950
3.100923 3.653585 1.176582 0.008929 0.015329 0.077854 -0.187106 -0.687887 -0.418334 10.341208 -9.868110
3.121038 3.677210 1.178612 0.008947 0.015037 0.074137 -0.199134 -0.696717 -0.422080 10.340599 -9.857850
3.141004 3.700617 1.178904 0.008958 0.014723 0.069885 -0.198340 -0.705007 -0.426407 10.339855 -9.864270
3.160971 3.724242 1.178456 0.008956 0.014734 0.066201 -0.176418 -0.713138 -0.430552 10.338976 -9.869370
3.180938 3.747867 1.177601 0.008960 0.015143 0.062826 -0.199974 -0.721491 -0.434507 10.338030 -9.860370
3.201053 3.771492 1.177602 0.008969 0.015287 0.058199 -0.233219 -0.730372 -0.438757 10.337016 -9.865530
3.221020 3.794899 1.178648 0.008971 0.015047 0.053495 -0.229879 -0.739253 -0.442801 10.336001 -9.865530
3.240987 3.818524 1.179821 0.008962 0.014637 0.049001 -0.227490 -0.747349 -0.447159 10.334920 -9.865530
3.260953 3.842149 1.179924 0.008940 0.014944 0.044393 -0.236633 -0.755685 -0.450948 10.333838 -9.861690
3.281068 3.865774 1.179263 0.008938 0.015619 0.039533 -0.227420 -0.764160 -0.454458 10.332688 -9.862950
3.301035 3.889399 1.179015 0.008936 0.015980 0.035293 -0.236423 -0.773235 -0.458370 10.331539 -9.860370
3.321002 3.913024 1.179939 0.008940 0.016283 0.030073 -0.240849 -0.781921 -0.462167 10.330390 -9.864270
3.341116 3.936650 1.179297 0.008943 0.016055 0.025657 -0.237536 -0.790819 -0.465645 10.329240 -9.865530
3.361083 3.960275 1.177289 0.008932 0.015782 0.020569 -0.229532 -0.800497 -0.469601 10.328023 -9.862950
3.381050 3.983681 1.176120 0.008916 0.016006 0.016473 -0.201565 -0.809950 -0.473552 10.326739 -9.857850
3.401017 4.007306 1.175382 0.008905 0.016693 0.012504 -0.202694 -0.820854 -0.477317 10.325454 -9.864270
3.421132 4.030713 1.177290 0.008912 0.017502 0.008362 -0.195757 -0.830605 -0.480994 10.324440 -9.857850
3.441099 4.054338 1.178740 0.008923 0.017847 0.004672 -0.159907 -0.840741 -0.485631 10.323290 -9.860370
3.461065 4.077963 1.178413 0.008934 0.017854 0.001964 -0.150238 -0.850395 -0.490028 10.322141 -9.856540
3.481032 4.101588 1.177775 0.008938 0.017789 -0.001340 -0.134333 -0.860812 -0.493994 10.320856 -9.856540
3.501147 4.124995 1.176193 0.008936 0.017685 -0.003411 -0.092282 -0.871194 -0.498105 10.319504 -9.854010
3.521114 4.148620 1.176132 0.008929 0.018067 -0.005032 -0.089447 -0.882768 -0.502656 10.318084 -9.856540
3.541081 4.172026 1.177525 0.008934 0.018413 -0.006990 -0.085649 -0.892903 -0.506925 10.316664 -9.857850
3.561047 4.195651 1.178102 0.008932 0.018202 -0.008459 -0.039659 -0.902695 -0.511299 10.315177 -9.855280
3.581162 4.219276 1.177484 0.008921 0.018212 -0.008576 0.004016 -0.913541 -0.515417 10.313689 -9.857850
3.601129 4.242902 1.176839 0.008910 0.018355 -0.008298 -0.021982 -0.923597 -0.519388 10.312202 -9.857850
3.621096 4.266308 1.176801 0.008894 0.018229 -0.009456 -0.045198 -0.934105 -0.523521 10.310985 -9.860370
3.641063 4.289933 1.177197 0.008873 0.018150 -0.010107 -0.004009 -0.944149 -0.527825 10.309903 -9.854010
3.661177 4.313558 1.175915 0.008846 0.017986 -0.009616 0.023416 -0.954450 -0.532079 10.309024 -9.856540
3.681144 4.336965 1.175001 0.008807 0.018022 -0.009170 0.034443 -0.965056 -0.536096 10.308280 -9.861690
3.701111 4.360590 1.176002 0.008774 0.018044 -0.008238 0.027349 -0.975879 -0.540562 10.307807 -9.864270
3.721226 4.383996 1.176175 0.008728 0.017635 -0.008075 0.025836 -0.987327 -0.545246 10.307672 -9.864270
3.741193 4.407621 1.177071 0.008669 0.017721 -0.007205 0.043797 -0.998047 -0.549743 10.307807 -9.865530
3.761159 4.431028 1.177627 0.008617 0.018057 -0.006323 0.055795 -1.009240 -0.553808 10.308348 -9.865530
3.781126 4.454653 1.177971 0.008562 0.018254 -0.004972 0.060723 -1.020900 -0.557910 10.309295 -9.865530
3.801241 4.478278 1.178865 0.008507 0.018595 -0.003893 0.047626 -1.032540 -0.561776 10.310647 -9.865530
3.821208 4.501903 1.178172 0.008455 0.018652 -0.003066 0.029581 -1.044830 -0.565801 10.311999 -9.865530
