time x0G u y0G v phi p psi r RPS delta 
[s] [m] [m/s] [m] [m/s] [deg] [deg/s] [deg] [deg/s] [Hz] [deg] 
0.000000 0.000000 1.172795 0.000109 -0.013922 -0.065400 -0.184581 0.433000 0.036781 10.333365 -1.170000
0.019967 0.023406 1.172794 -0.000009 -0.013963 -0.068700 -0.184581 0.435000 0.037322 10.333365 -1.160000
0.040082 0.046813 1.172795 -0.000124 -0.013856 -0.072800 -0.195399 0.437000 0.037660 10.333365 -1.160000
0.060048 0.070219 1.172800 -0.000215 -0.013235 -0.076500 -0.160917 0.437000 0.037254 10.322141 -1.160000
0.080015 0.093844 1.175758 -0.000282 -0.013218 -0.079200 -0.159565 0.438000 0.036375 10.322141 -1.160000
0.099982 0.117251 1.177236 -0.000376 -0.013443 -0.082900 -0.167678 0.439000 0.036308 10.322141 -1.160000
0.120097 0.140876 1.178715 -0.000468 -0.013386 -0.086000 -0.180524 0.440000 0.035158 10.322141 -1.160000
0.140064 0.164501 1.180195 -0.000562 -0.013157 -0.090100 -0.168354 0.442000 0.034685 10.322141 -1.160000
0.159735 0.188126 1.183158 -0.000656 -0.012654 -0.092700 -0.108179 0.443000 0.033874 10.322141 -1.160000
0.180441 0.211751 1.186120 -0.000726 -0.012082 -0.094400 -0.118997 0.445000 0.032792 10.322141 -1.160000
0.199668 0.236251 1.187599 -0.000774 -0.011951 -0.097500 -0.108179 0.446000 0.031575 10.322141 -1.170000
0.220375 0.260314 1.190557 -0.000849 -0.012128 -0.098700 -0.061865 0.447000 0.030155 10.322141 -1.160000
0.239602 0.284377 1.190554 -0.000897 -0.012392 -0.099900 -0.100066 0.449000 0.028803 10.322141 -1.160000
0.260308 0.306252 1.192030 -0.000971 -0.012815 -0.103000 -0.096009 0.451000 0.027789 10.322141 -1.160000
0.279536 0.330315 1.194990 -0.001043 -0.012519 -0.104000 -0.052737 0.452000 0.027180 10.322141 -1.160000
0.300242 0.354377 1.194994 -0.001116 -0.011977 -0.105000 -0.056050 0.453000 0.026572 10.322141 -1.160000
0.319469 0.378440 1.196473 -0.001162 -0.012099 -0.106000 -0.040297 0.454000 0.025963 10.322141 -1.160000
0.340176 0.402503 1.194991 -0.001210 -0.012418 -0.106000 -0.045435 0.455000 0.025760 10.322141 -1.160000
0.360882 0.426565 1.193508 -0.001280 -0.012871 -0.108000 -0.040162 0.456000 0.025355 10.322141 -1.160000
0.380109 0.450628 1.193505 -0.001354 -0.013253 -0.108000 -0.007437 0.458000 0.025219 10.322141 -1.160000
0.400816 0.474690 1.192027 -0.001450 -0.013002 -0.108000 -0.001021 0.460000 0.024814 10.333365 -1.160000
0.420043 0.498753 1.190550 -0.001498 -0.012937 -0.108000 -0.000612 0.461000 0.025557 10.333365 -1.160000
0.440749 0.522816 1.187589 -0.001593 -0.013250 -0.108000 -0.009195 0.463000 0.026369 10.333365 -1.160000
0.459977 0.544691 1.183150 -0.001663 -0.013427 -0.108000 -0.003083 0.464000 0.027451 10.344656 -1.150000
0.480683 0.568754 1.180188 -0.001739 -0.013947 -0.108000 0.010007 0.466000 0.028735 10.344656 -1.160000
0.499910 0.592816 1.178709 -0.001855 -0.013947 -0.108000 0.013996 0.468000 0.030290 10.344656 -1.150000
0.520617 0.616879 1.175754 -0.001929 -0.013476 -0.108000 0.006356 0.470000 0.032116 10.355947 -1.160000
0.539844 0.640942 1.174273 -0.001999 -0.013558 -0.108000 -0.023259 0.471000 0.033941 10.355947 -1.170000
0.560550 0.662817 1.172794 -0.002091 -0.013566 -0.109000 -0.013793 0.472000 0.035902 10.355947 -1.130000
0.579778 0.686879 1.169837 -0.002163 -0.013503 -0.108000 0.000696 0.473000 0.038133 10.355947 -0.916000
0.600484 0.710942 1.169836 -0.002253 -0.013588 -0.109000 0.001690 0.475000 0.040432 10.355947 -0.297000
0.619711 0.732817 1.169837 -0.002341 -0.013319 -0.108000 0.039621 0.477000 0.043272 10.355947 -0.048700
0.640418 0.756880 1.169840 -0.002406 -0.012945 -0.107000 0.065719 0.479000 0.046450 10.355947 0.296000
0.659645 0.780942 1.171321 -0.002450 -0.012786 -0.106000 0.062744 0.480000 0.049627 10.344656 0.544000
0.680351 0.805005 1.174280 -0.002516 -0.012678 -0.105000 0.031440 0.480000 0.053346 10.344656 0.902000
0.699579 0.826880 1.175758 -0.002559 -0.012844 -0.104000 0.025625 0.481000 0.056794 10.344656 1.200000
0.720285 0.850943 1.178715 -0.002625 -0.013120 -0.104000 0.023394 0.481000 0.060378 10.333365 1.590000
0.740991 0.875005 1.181673 -0.002691 -0.013083 -0.103000 0.030764 0.483000 0.063555 10.333365 1.930000
0.760219 0.899068 1.183155 -0.002756 -0.012687 -0.102000 0.083839 0.484000 0.066530 10.322141 2.190000
0.780925 0.923131 1.184640 -0.002800 -0.012031 -0.100000 0.102094 0.486000 0.069640 10.322141 2.540000
0.800152 0.945006 1.187599 -0.002844 -0.011772 -0.098200 0.090600 0.488000 0.073021 10.322141 2.870000
0.820859 0.969069 1.189075 -0.002866 -0.012190 -0.096500 0.090600 0.489000 0.076402 10.310850 3.150000
0.840086 0.993131 1.192029 -0.002909 -0.012730 -0.094600 0.100742 0.491000 0.079782 10.310850 3.470000
0.860792 1.017194 1.194987 -0.002975 -0.012699 -0.092500 0.114264 0.494000 0.083839 10.310850 3.790000
0.880020 1.041257 1.193511 -0.002997 -0.012409 -0.090000 0.137253 0.497000 0.086544 10.299558 4.230000
0.900726 1.065319 1.193509 -0.003063 -0.012578 -0.087000 0.123730 0.498000 0.090600 10.299558 4.510000
0.919953 1.089382 1.193511 -0.003084 -0.012398 -0.085000 0.104799 0.500000 0.094657 10.299558 4.790000
0.940660 1.113444 1.193509 -0.003150 -0.012422 -0.082800 0.102094 0.504000 0.098038 10.299558 5.120000
0.959887 1.137507 1.193506 -0.003194 -0.012765 -0.080900 0.112236 0.507000 0.102094 10.299558 5.410000
0.980593 1.161570 1.192026 -0.003238 -0.012895 -0.078300 0.118321 0.511000 0.105475 10.299558 5.800000
0.999821 1.183445 1.189063 -0.003281 -0.013460 -0.076200 0.106827 0.516000 0.109532 10.299558 6.110000
1.020527 1.207508 1.189059 -0.003369 -0.013928 -0.074000 0.102770 0.520000 0.114264 10.299558 6.450000
1.039754 1.231570 1.186102 -0.003434 -0.013614 -0.072100 0.110884 0.524000 0.117645 10.299558 6.730000
1.060461 1.255633 1.184625 -0.003500 -0.013461 -0.069600 0.131844 0.528000 0.122378 10.299558 7.060000
1.079688 1.279695 1.183143 -0.003522 -0.013832 -0.066800 0.109532 0.533000 0.126435 10.310850 7.380000
1.100394 1.303758 1.180180 -0.003609 -0.014262 -0.065200 0.097361 0.538000 0.131168 10.310850 7.660000
1.121101 1.325633 1.177218 -0.003675 -0.014627 -0.063000 0.081135 0.542000 0.135224 10.310850 8.010000
1.140328 1.349696 1.177215 -0.003763 -0.014931 -0.062000 0.055374 0.546000 0.139957 10.322141 8.280000
1.161034 1.373759 1.177212 -0.003850 -0.015137 -0.060700 0.059566 0.551000 0.145366 10.322141 8.660000
1.180262 1.397821 1.177212 -0.003938 -0.015190 -0.059600 0.038539 0.555000 0.150775 10.333365 8.950000
1.200968 1.419696 1.175731 -0.004003 -0.015258 -0.059200 0.020419 0.559000 0.155508 10.333365 9.250000
1.220195 1.443759 1.175728 -0.004069 -0.015517 -0.058800 -0.008790 0.563000 0.161593 10.333365 9.640000
1.240902 1.467822 1.175725 -0.004156 -0.015812 -0.059500 -0.035767 0.568000 0.167678 10.333365 9.880000
1.260129 1.491884 1.178682 -0.004266 -0.015909 -0.060200 -0.048884 0.572000 0.173763 10.344656 10.200000
1.280835 1.515947 1.181642 -0.004353 -0.015755 -0.061500 -0.072345 0.576000 0.179848 10.344656 10.600000
1.300063 1.537822 1.183122 -0.004419 -0.015610 -0.063100 -0.064096 0.579000 0.185933 10.344656 10.900000
1.320769 1.561885 1.184600 -0.004484 -0.015781 -0.064100 -0.050236 0.583000 0.192018 10.344656 11.300000
1.339996 1.585947 1.186076 -0.004572 -0.016033 -0.065100 -0.066936 0.588000 0.198104 10.344656 11.600000
1.360703 1.610010 1.189031 -0.004659 -0.016265 -0.066700 -0.087220 0.592000 0.204189 10.344656 11.900000
1.379930 1.634073 1.191987 -0.004747 -0.016378 -0.068600 -0.109532 0.596000 0.210950 10.344656 12.200000
1.400636 1.658135 1.191990 -0.004791 -0.016145 -0.071100 -0.127111 0.599000 0.217711 10.344656 12.500000
1.419864 1.682198 1.191989 -0.004878 -0.016222 -0.073700 -0.148747 0.602000 0.224472 10.344656 12.900000
1.440570 1.704073 1.191984 -0.004966 -0.016601 -0.077100 -0.164974 0.606000 0.231233 10.344656 13.200000
1.459797 1.728136 1.191984 -0.005053 -0.016670 -0.080300 -0.136577 0.610000 0.237995 10.344656 13.500000
1.479025 1.752198 1.191981 -0.005097 -0.016916 -0.082500 -0.148071 0.614000 0.244756 10.344656 13.900000
1.493815 1.776261 1.190502 -0.005184 -0.016903 -0.086200 -0.148071 0.617000 0.252869 10.344656 14.200000
1.523395 1.800324 1.189019 -0.005272 -0.017183 -0.088500 -0.145366 0.622000 0.260983 10.333365 14.500000
1.538186 1.824386 1.186058 -0.005359 -0.017485 -0.092000 -0.139281 0.626000 0.268420 10.333365 14.800000
1.567766 1.848449 1.184582 -0.005447 -0.017129 -0.094000 -0.114941 0.631000 0.277210 10.333365 15.100000
1.582556 1.872512 1.183100 -0.005534 -0.017414 -0.096600 -0.158889 0.637000 0.285323 10.333365 15.400000
1.597347 1.894387 1.181613 -0.005622 -0.017994 -0.100000 -0.186609 0.643000 0.294113 10.333365 15.800000
1.626927 1.918449 1.180131 -0.005731 -0.018199 -0.104000 -0.179172 0.648000 0.303578 10.333365 16.100000
1.641717 1.942512 1.178648 -0.005819 -0.018459 -0.108000 -0.156860 0.655000 0.312368 10.333365 16.400000
1.656508 1.966575 1.177166 -0.005928 -0.018705 -0.110000 -0.164974 0.662000 0.321834 10.333365 16.800000
1.686088 1.990637 1.175686 -0.006038 -0.018772 -0.114000 -0.175792 0.669000 0.331299 10.333365 17.000000
1.700878 2.012513 1.174202 -0.006147 -0.019043 -0.117000 -0.141985 0.678000 0.340765 10.344656 17.400000
1.715668 2.036575 1.172720 -0.006278 -0.019209 -0.120000 -0.135224 0.687000 0.350231 10.344656 17.700000
1.745249 2.060638 1.172720 -0.006388 -0.019207 -0.123000 -0.133196 0.697000 0.359697 10.344656 18.000000
1.760039 2.082513 1.172711 -0.006497 -0.019767 -0.125000 -0.129815 0.707000 0.370514 10.344656 18.300000
1.774829 2.106576 1.174183 -0.006628 -0.020315 -0.128000 -0.142662 0.717000 0.381332 10.333365 18.600000
1.804410 2.130638 1.175657 -0.006738 -0.020598 -0.131000 -0.162945 0.727000 0.390798 10.333365 19.000000
1.819200 2.154701 1.178610 -0.006869 -0.021078 -0.135000 -0.169706 0.737000 0.401616 10.333365 19.300000
1.833990 2.178764 1.180086 -0.007022 -0.021167 -0.138000 -0.154832 0.749000 0.413110 10.333365 19.600000
1.863571 2.209389 1.180086 -0.007131 -0.021092 -0.141000 -0.147394 0.759000 0.423928 10.333365 19.900000
1.878361 2.231264 1.181556 -0.007263 -0.021663 -0.144000 -0.164297 0.770000 0.434746 10.333365 20.300000
1.907942 2.253139 1.184506 -0.007394 -0.022212 -0.147000 -0.211626 0.781000 0.445564 10.333365 20.600000
1.922732 2.275014 1.188938 -0.007547 -0.022527 -0.152000 -0.204865 0.794000 0.457058 10.333365 21.000000
1.937522 2.296889 1.191887 -0.007656 -0.023128 -0.155000 -0.177820 0.806000 0.467876 10.322141 21.300000
1.967103 2.318764 1.193360 -0.007809 -0.023482 -0.159000 -0.194723 0.817000 0.478694 10.322141 21.600000
1.981893 2.340640 1.194833 -0.007941 -0.023762 -0.163000 -0.192018 0.828000 0.489512 10.322141 22.000000
1.996683 2.362515 1.194829 -0.008072 -0.023991 -0.167000 -0.184581 0.839000 0.500330 10.322141 22.400000
2.026264 2.384390 1.194827 -0.008203 -0.024037 -0.171000 -0.192018 0.849000 0.511148 10.322141 22.700000
2.041054 2.406265 1.196296 -0.008334 -0.024614 -0.175000 -0.206893 0.860000 0.521290 10.310850 23.000000
2.055844 2.450015 1.194808 -0.008509 -0.025138 -0.179000 -0.227853 0.872000 0.532107 10.310850 23.300000
2.085425 2.471890 1.191842 -0.008641 -0.025508 -0.184000 -0.233938 0.882000 0.542925 10.310850 23.600000
2.100215 2.493766 1.191829 -0.008794 -0.026269 -0.188000 -0.233938 0.893000 0.553743 10.310850 24.000000
2.115005 2.515641 1.188865 -0.008947 -0.026540 -0.193000 -0.242728 0.904000 0.565237 10.310850 24.300000
2.144586 2.537516 1.188865 -0.009100 -0.026419 -0.198000 -0.232586 0.916000 0.576055 10.310850 24.600000
2.159376 2.559391 1.187388 -0.009253 -0.026239 -0.202000 -0.194723 0.927000 0.586873 10.310850 24.900000
2.174166 2.581266 1.184428 -0.009384 -0.026188 -0.206000 -0.194723 0.939000 0.598367 10.310850 25.300000
2.203747 2.603141 1.181464 -0.009516 -0.026505 -0.210000 -0.230557 0.951000 0.609185 10.310850 25.600000
2.218537 2.625016 1.179976 -0.009691 -0.026852 -0.215000 -0.219063 0.964000 0.620679 10.322141 25.800000
2.248117 2.646892 1.178496 -0.009822 -0.026896 -0.219000 -0.183905 0.976000 0.631497 10.322141 26.200000
2.262908 2.668767 1.178488 -0.009953 -0.027223 -0.222000 -0.183905 0.989000 0.643667 10.322141 26.500000
2.277698 2.690642 1.176999 -0.010106 -0.027719 -0.226000 -0.179172 1.000000 0.655162 10.322141 26.900000
2.307278 2.734392 1.175515 -0.010259 -0.027869 -0.230000 -0.169706 1.010000 0.666656 10.322141 27.200000
2.322069 2.756267 1.174025 -0.010391 -0.028371 -0.233000 -0.185257 1.030000 0.676121 10.333365 27.500000
2.336859 2.778142 1.174017 -0.010544 -0.028753 -0.237000 -0.210950 1.040000 0.689644 10.333365 27.800000
2.366439 2.800018 1.174010 -0.010697 -0.029045 -0.241000 -0.214330 1.060000 0.703166 10.333365 28.000000
2.381230 2.821893 1.175484 -0.010850 -0.029174 -0.246000 -0.184581 1.070000 0.716689 10.333365 28.400000
2.396020 2.843768 1.176955 -0.011003 -0.029583 -0.249000 -0.184581 1.090000 0.730211 10.344656 28.700000
2.425600 2.865643 1.176935 -0.011156 -0.030422 -0.253000 -0.215683 1.110000 0.743733 10.344656 29.000000
2.440391 2.887518 1.179883 -0.011331 -0.030922 -0.257000 -0.184581 1.120000 0.757256 10.344656 29.300000
2.455181 2.909393 1.181350 -0.011506 -0.031393 -0.260000 -0.170383 1.140000 0.770778 10.355947 29.700000
2.484761 2.931268 1.184290 -0.011659 -0.032146 -0.264000 -0.196751 1.160000 0.784301 10.355947 30.000000
2.499552 2.953143 1.185762 -0.011856 -0.032472 -0.268000 -0.193371 1.170000 0.797823 10.355947 30.200000
2.514342 2.975019 1.185749 -0.012031 -0.032989 -0.272000 -0.229205 1.190000 0.811346 10.355947 30.500000
2.543922 2.996894 1.187212 -0.012206 -0.033627 -0.277000 -0.244080 1.210000 0.824868 10.355947 30.800000
2.558713 3.040644 1.187188 -0.012403 -0.034618 -0.282000 -0.240699 1.230000 0.845152 10.355947 31.200000
2.573503 3.062519 1.187161 -0.012600 -0.035683 -0.287000 -0.242051 1.250000 0.858674 10.355947 31.400000
2.603083 3.084394 1.187144 -0.012797 -0.036334 -0.291000 -0.227853 1.270000 0.872196 10.355947 31.700000
2.617873 3.106269 1.187124 -0.013016 -0.037014 -0.296000 -0.225148 1.290000 0.885719 10.355947 32.000000
2.647454 3.128145 1.185632 -0.013234 -0.037410 -0.300000 -0.206893 1.310000 0.899241 10.355947 32.400000
2.662244 3.150020 1.184146 -0.013431 -0.037671 -0.304000 -0.207569 1.320000 0.912764 10.344656 32.700000
2.677034 3.171895 1.181162 -0.013672 -0.038518 -0.309000 -0.220416 1.340000 0.933047 10.344656 33.100000
2.706615 3.193770 1.179658 -0.013891 -0.039398 -0.313000 -0.225148 1.360000 0.946570 10.344656 33.300000
2.721405 3.215645 1.179637 -0.014131 -0.040150 -0.318000 -0.236642 1.380000 0.960092 10.344656 33.600000
2.736195 3.237520 1.176672 -0.014394 -0.040253 -0.323000 -0.206217 1.400000 0.980376 10.344656 33.900000
2.765776 3.259395 1.175189 -0.014591 -0.040228 -0.326000 -0.150099 1.420000 0.993898 10.333365 34.200000
2.780566 3.281271 1.173698 -0.014809 -0.040527 -0.329000 -0.128463 1.440000 1.007421 10.333365 34.500000
2.795356 3.325021 1.172205 -0.015050 -0.040899 -0.331000 -0.122378 1.460000 1.027704 10.333365 34.600000
2.824937 3.346896 1.172183 -0.015269 -0.041604 -0.334000 -0.116293 1.480000 1.041227 10.333365 34.700000
2.839727 3.368771 1.170692 -0.015488 -0.041856 -0.336000 -0.102094 1.500000 1.054749 10.333365 34.700000
2.854517 3.390646 1.169201 -0.015728 -0.042074 -0.338000 -0.077078 1.530000 1.075033 10.322141 34.700000
2.884098 3.412521 1.170670 -0.015947 -0.042360 -0.339000 -0.059566 1.550000 1.088555 10.322141 34.700000
2.898888 3.434396 1.172142 -0.016166 -0.042528 -0.340000 -0.034550 1.570000 1.102078 10.322141 34.700000
2.913678 3.456272 1.173603 -0.016363 -0.042991 -0.340000 0.020825 1.600000 1.122361 10.322141 34.700000
2.943259 3.478147 1.175072 -0.016581 -0.043221 -0.339000 0.019946 1.620000 1.135884 10.322141 34.700000
2.958049 3.500022 1.175057 -0.016778 -0.043616 -0.339000 0.015686 1.640000 1.149406 10.310850 34.700000
2.987630 3.521897 1.177984 -0.016975 -0.044569 -0.339000 0.073021 1.670000 1.169690 10.310850 34.700000
3.002420 3.543772 1.180932 -0.017194 -0.044860 -0.337000 0.073697 1.690000 1.183212 10.310850 34.700000
3.017210 3.565647 1.183875 -0.017391 -0.045198 -0.336000 0.069640 1.720000 1.196735 10.310850 34.700000
3.046791 3.587522 1.186820 -0.017588 -0.045583 -0.334000 0.093981 1.740000 1.210257 10.310850 34.700000
3.061581 3.631273 1.186796 -0.017784 -0.046204 -0.332000 0.096685 1.770000 1.230541 10.310850 34.700000
3.076371 3.653148 1.188245 -0.018003 -0.047005 -0.330000 0.099390 1.800000 1.244063 10.299558 34.700000
3.105952 3.675023 1.189701 -0.018200 -0.047630 -0.328000 0.112912 1.830000 1.257586 10.299558 34.700000
3.120742 3.696898 1.192654 -0.018397 -0.047697 -0.325000 0.148071 1.850000 1.277869 10.299558 34.700000
3.135532 3.718773 1.194117 -0.018572 -0.048104 -0.322000 0.162269 1.880000 1.291392 10.299558 34.700000
3.165113 3.740648 1.192598 -0.018769 -0.049109 -0.319000 0.148747 1.910000 1.304914 10.299558 34.700000
3.179903 3.762524 1.191069 -0.018988 -0.050422 -0.316000 0.133872 1.940000 1.318437 10.310850 34.700000
3.194693 3.784399 1.189544 -0.019184 -0.051586 -0.314000 0.110884 1.970000 1.331959 10.310850 34.700000
3.224274 3.806274 1.189511 -0.019425 -0.052386 -0.312000 0.114941 2.000000 1.352243 10.310850 34.700000
3.239064 3.828149 1.188018 -0.019644 -0.052632 -0.309000 0.152803 2.030000 1.365765 10.310850 34.700000
3.253854 3.850024 1.185042 -0.019841 -0.052896 -0.305000 0.151451 2.060000 1.379287 10.310850 34.700000
3.283435 3.871899 1.180584 -0.020060 -0.053237 -0.303000 0.130491 2.090000 1.392810 10.322141 34.700000
3.298225 3.915649 1.177602 -0.020278 -0.053701 -0.300000 0.128463 2.120000 1.406332 10.322141 34.700000
3.327805 3.937525 1.176082 -0.020475 -0.054617 -0.298000 0.132520 2.150000 1.419855 10.322141 34.700000
3.342596 3.959400 1.174575 -0.020716 -0.055206 -0.295000 0.146042 2.180000 1.433377 10.333365 34.700000
3.357386 3.981275 1.173078 -0.020913 -0.055483 -0.292000 0.153480 2.210000 1.446900 10.333365 34.700000
3.386966 4.003150 1.170096 -0.021110 -0.055893 -0.289000 0.150775 2.240000 1.453661 10.333365 34.700000
3.401757 4.025025 1.167126 -0.021306 -0.056004 -0.286000 0.141985 2.270000 1.467183 10.344656 34.700000
3.416547 4.046900 1.167113 -0.021503 -0.056246 -0.283000 0.158212 2.300000 1.480706 10.344656 34.700000
3.446127 4.068775 1.165602 -0.021678 -0.056871 -0.280000 0.167678 2.330000 1.494228 10.344656 34.700000
3.460917 4.090651 1.165584 -0.021875 -0.057185 -0.276000 0.146718 2.360000 1.507750 10.355947 34.700000
3.475708 4.112526 1.165576 -0.022094 -0.057278 -0.274000 0.162945 2.390000 1.521273 10.355947 34.700000
3.505288 4.134401 1.165554 -0.022313 -0.057667 -0.270000 0.187962 2.420000 1.534795 10.355947 34.700000
3.520078 4.156276 1.167021 -0.022313 -0.057883 -0.266000 0.191342 2.450000 1.548318 10.355947 34.700000
3.534869 4.178151 1.168477 -0.022531 -0.058366 -0.262000 0.222444 2.480000 1.561840 10.355947 34.700000
3.564449 4.221901 1.169916 -0.022750 -0.059187 -0.257000 0.244080 2.520000 1.568601 10.355947 34.700000
3.579239 4.243777 1.171399 -0.022750 -0.059053 -0.252000 0.259631 2.550000 1.582124 10.355947 34.700000
3.594030 4.265652 1.174331 -0.022969 -0.059637 -0.247000 0.265040 2.580000 1.595646 10.355947 34.700000
3.623610 4.287527 1.175788 -0.023188 -0.060083 -0.242000 0.284647 2.610000 1.609169 10.355947 34.700000
3.638400 4.309402 1.178747 -0.023188 -0.060006 -0.235000 0.347526 2.650000 1.622691 10.344656 34.700000
3.667981 4.331277 1.180195 -0.023406 -0.060663 -0.228000 0.372543 2.680000 1.636214 10.344656 34.700000
3.682771 4.353152 1.181612 -0.023406 -0.061941 -0.221000 0.363077 2.720000 1.649736 10.344656 34.700000
3.697561 4.375027 1.181560 -0.023625 -0.062944 -0.213000 0.342793 2.750000 1.663258 10.333365 34.700000
3.727142 4.396902 1.180047 -0.023625 -0.063550 -0.207000 0.363753 2.780000 1.676781 10.333365 34.700000
3.741932 4.418778 1.180032 -0.023844 -0.063768 -0.199000 0.394855 2.820000 1.683542 10.322141 34.700000
3.756722 4.440653 1.178518 -0.023844 -0.064401 -0.191000 0.387417 2.850000 1.697064 10.322141 34.700000
3.786303 4.462528 1.178450 -0.024063 -0.065667 -0.183000 0.363753 2.890000 1.710587 10.322141 34.700000
