time          x0G           u             y0G           v             phi           p             psi           r             RPS           delta         
(s)           (m)           (m/s)         (m)           (m/s)         (deg)         (deg/s)       (deg)         (deg/s)       (Hz)          (deg)         
1.08200e+00   8.67000e+00   7.98249e+00   9.40000e-02   6.34019e-02   1.97750e-01   -4.72859e-02  1.52967e-01   -1.40096e-02  1.52557e+00   8.22235e-01   
1.21700e+00   9.74000e+00   7.94991e+00   1.06000e-01   6.12386e-02   1.92153e-01   -4.72859e-02  1.49548e-01   -1.41957e-02  1.52539e+00   8.28640e-01   
1.35300e+00   1.08200e+01   7.94897e+00   1.17000e-01   6.23604e-02   1.84958e-01   -5.33082e-02  1.46227e-01   -1.43725e-02  1.52521e+00   8.28640e-01   
1.48800e+00   1.18900e+01   7.94872e+00   1.28000e-01   6.48554e-02   1.77732e-01   -5.37273e-02  1.42819e-01   -1.45738e-02  1.52505e+00   8.28640e-01   
1.62300e+00   1.29700e+01   7.95886e+00   1.39000e-01   6.61962e-02   1.70423e-01   -5.43098e-02  1.39206e-01   -1.47590e-02  1.52491e+00   8.27357e-01   
1.75800e+00   1.40500e+01   8.00976e+00   1.51000e-01   6.77423e-02   1.63039e-01   -5.72998e-02  1.35582e-01   -1.49535e-02  1.52478e+00   8.27357e-01   
1.89400e+00   1.51300e+01   8.09199e+00   1.63000e-01   6.95242e-02   1.54921e-01   -6.25355e-02  1.31431e-01   -1.50527e-02  1.52468e+00   8.27357e-01   
2.02900e+00   1.62300e+01   8.13713e+00   1.75000e-01   7.09517e-02   1.46121e-01   -6.74194e-02  1.27696e-01   -1.51757e-02  1.52463e+00   8.26073e-01   
2.16400e+00   1.73400e+01   8.15118e+00   1.87000e-01   7.04785e-02   1.36683e-01   -6.52078e-02  1.24194e-01   -1.52565e-02  1.52461e+00   8.28640e-01   
2.29900e+00   1.84400e+01   8.15487e+00   1.99000e-01   6.86401e-02   1.28481e-01   -6.31485e-02  1.20207e-01   -1.53316e-02  1.52462e+00   8.29918e-01   
2.43500e+00   1.95400e+01   8.12278e+00   2.10000e-01   6.89504e-02   1.19599e-01   -7.21497e-02  1.16875e-01   -1.53826e-02  1.52465e+00   8.24796e-01   
2.57000e+00   2.06400e+01   8.10017e+00   2.22000e-01   7.09276e-02   1.08962e-01   -7.96039e-02  1.13250e-01   -1.52803e-02  1.52473e+00   8.20951e-01   
2.70500e+00   2.17300e+01   8.10391e+00   2.34000e-01   7.14820e-02   9.80640e-02   -7.91633e-02  1.11370e-01   -1.52298e-02  1.52483e+00   8.26073e-01   
2.84000e+00   2.28300e+01   8.06756e+00   2.45000e-01   7.20211e-02   8.75462e-02   -7.84631e-02  1.08983e-01   -1.53441e-02  1.52498e+00   8.27357e-01   
2.97600e+00   2.39200e+01   8.03555e+00   2.57000e-01   7.36985e-02   7.68377e-02   -7.99471e-02  1.06594e-01   -1.52629e-02  1.52516e+00   8.28640e-01   
3.11100e+00   2.50000e+01   8.03098e+00   2.69000e-01   7.22777e-02   6.59188e-02   -8.38237e-02  1.04870e-01   -1.50624e-02  1.52539e+00   8.26073e-01   
3.24600e+00   2.60900e+01   8.02189e+00   2.81000e-01   7.07938e-02   5.41610e-02   -8.63493e-02  1.02732e-01   -1.49857e-02  1.52565e+00   8.24796e-01   
3.38200e+00   2.71700e+01   8.01890e+00   2.92000e-01   7.08881e-02   4.25587e-02   -8.74110e-02  1.00388e-01   -1.48491e-02  1.52592e+00   8.28640e-01   
3.51700e+00   2.82600e+01   8.02134e+00   3.04000e-01   7.13064e-02   3.05140e-02   -9.09496e-02  9.75856e-02   -1.47099e-02  1.52622e+00   8.29918e-01   
3.65200e+00   2.93400e+01   8.02503e+00   3.15000e-01   7.25047e-02   1.79541e-02   -9.06167e-02  9.57848e-02   -1.45599e-02  1.52655e+00   8.77307e-01   
3.78700e+00   3.04300e+01   8.06439e+00   3.27000e-01   7.15511e-02   5.99944e-03   -8.88520e-02  9.40608e-02   -1.42795e-02  1.52692e+00   1.05405e+00   
3.92300e+00   3.15200e+01   8.10170e+00   3.38000e-01   6.94542e-02   -6.08286e-03  -8.83988e-02  9.20869e-02   -1.40455e-02  1.52732e+00   1.23847e+00   
4.05800e+00   3.26200e+01   8.13607e+00   3.49000e-01   6.95420e-02   -1.79149e-02  -8.48757e-02  9.02214e-02   -1.37277e-02  1.52774e+00   1.67905e+00   
4.19300e+00   3.37300e+01   8.17019e+00   3.61000e-01   7.02013e-02   -2.90442e-02  -8.39807e-02  8.88503e-02   -1.34368e-02  1.52816e+00   1.99795e+00   
4.32800e+00   3.48300e+01   8.16744e+00   3.72000e-01   7.22059e-02   -4.06341e-02  -8.61213e-02  8.57718e-02   -1.30976e-02  1.52859e+00   2.33606e+00   
4.46400e+00   3.59400e+01   8.16452e+00   3.84000e-01   7.42194e-02   -5.23425e-02  -8.46631e-02  8.40942e-02   -1.27641e-02  1.52902e+00   2.58325e+00   
4.59900e+00   3.70400e+01   8.12545e+00   3.95000e-01   7.20537e-02   -6.35376e-02  -8.23541e-02  8.19834e-02   -1.24806e-02  1.52943e+00   2.95850e+00   
4.73400e+00   3.81300e+01   8.08323e+00   4.06000e-01   7.04911e-02   -7.46215e-02  -7.82231e-02  7.98938e-02   -1.22077e-02  1.53006e+00   3.26460e+00   
4.86900e+00   3.92300e+01   8.03424e+00   4.17000e-01   7.15318e-02   -8.46992e-02  -7.53674e-02  7.74971e-02   -1.17943e-02  1.53043e+00   3.62833e+00   
5.00500e+00   4.03100e+01   7.99291e+00   4.28000e-01   7.09041e-02   -9.50107e-02  -7.41625e-02  7.50254e-02   -1.13584e-02  1.53075e+00   3.88448e+00   
5.14000e+00   4.13900e+01   7.99893e+00   4.39000e-01   7.18391e-02   -1.04762e-01  -7.00017e-02  7.31587e-02   -1.08881e-02  1.53101e+00   4.22387e+00   
5.27500e+00   4.24700e+01   7.99679e+00   4.51000e-01   7.56386e-02   -1.13948e-01  -6.94774e-02  7.11447e-02   -1.03346e-02  1.53122e+00   4.53637e+00   
5.41000e+00   4.35500e+01   7.99161e+00   4.62000e-01   7.54038e-02   -1.23558e-01  -6.85080e-02  6.92070e-02   -9.81626e-03  1.53136e+00   4.81430e+00   
5.54600e+00   4.46300e+01   7.98470e+00   4.74000e-01   7.45000e-02   -1.32482e-01  -6.45941e-02  6.63216e-02   -9.23854e-03  1.53142e+00   5.14600e+00   
5.68100e+00   4.57100e+01   8.00886e+00   4.85000e-01   7.52341e-02   -1.41032e-01  -6.29669e-02  6.38074e-02   -8.58165e-03  1.53141e+00   5.47899e+00   
5.81600e+00   4.68000e+01   8.03868e+00   4.96000e-01   7.66791e-02   -1.49516e-01  -6.02379e-02  6.14979e-02   -7.93776e-03  1.53132e+00   5.86835e+00   
5.95200e+00   4.78900e+01   8.03935e+00   5.08000e-01   7.90298e-02   -1.57328e-01  -5.70025e-02  5.87774e-02   -7.29765e-03  1.53115e+00   6.13472e+00   
6.08700e+00   4.89700e+01   8.04369e+00   5.20000e-01   7.88458e-02   -1.64937e-01  -5.53060e-02  5.65994e-02   -6.55063e-03  1.53067e+00   6.45236e+00   
6.22200e+00   5.00600e+01   8.06708e+00   5.32000e-01   7.88410e-02   -1.72291e-01  -5.18053e-02  5.42362e-02   -5.82824e-03  1.53038e+00   6.75076e+00   
6.35700e+00   5.11600e+01   8.08280e+00   5.43000e-01   8.03599e-02   -1.78951e-01  -4.68679e-02  5.22744e-02   -5.05826e-03  1.53003e+00   7.02738e+00   
6.49300e+00   5.22500e+01   8.07796e+00   5.55000e-01   8.01088e-02   -1.84970e-01  -4.03192e-02  5.12230e-02   -4.23432e-03  1.52962e+00   7.37574e+00   
6.62800e+00   5.33400e+01   8.08107e+00   5.67000e-01   7.85685e-02   -1.89859e-01  -3.86288e-02  4.99710e-02   -3.32270e-03  1.52917e+00   7.65878e+00   
6.76300e+00   5.44400e+01   8.01548e+00   5.79000e-01   7.47901e-02   -1.95420e-01  -3.92924e-02  4.91713e-02   -2.42012e-03  1.52869e+00   8.01740e+00   
6.89800e+00   5.55100e+01   7.94730e+00   5.89000e-01   7.18504e-02   -2.00489e-01  -3.43923e-02  4.92726e-02   -1.54942e-03  1.52818e+00   8.30817e+00   
7.03400e+00   5.65900e+01   7.94666e+00   6.00000e-01   7.14055e-02   -2.04724e-01  -3.07172e-02  4.91276e-02   -6.77987e-04  1.52766e+00   8.62960e+00   
7.16900e+00   5.76600e+01   7.94481e+00   6.10000e-01   6.95349e-02   -2.08798e-01  -2.98230e-02  4.89875e-02   2.35990e-04   1.52714e+00   8.94083e+00   
7.30400e+00   5.87300e+01   7.94061e+00   6.21000e-01   6.56660e-02   -2.12792e-01  -2.73334e-02  4.92547e-02   1.13226e-03   1.52664e+00   9.28793e+00   
7.43900e+00   5.98100e+01   7.94661e+00   6.30000e-01   6.14554e-02   -2.16193e-01  -2.42416e-02  4.95381e-02   1.90436e-03   1.52644e+00   9.57865e+00   
7.57500e+00   6.08800e+01   7.95590e+00   6.39000e-01   5.88808e-02   -2.19350e-01  -2.40412e-02  4.92903e-02   2.75250e-03   1.52598e+00   9.90650e+00   
7.71000e+00   6.19600e+01   7.98978e+00   6.48000e-01   5.62728e-02   -2.22697e-01  -2.43649e-02  4.98716e-02   3.62671e-03   1.52558e+00   1.00538e+01   
7.84500e+00   6.30500e+01   7.98038e+00   6.56000e-01   5.29738e-02   -2.25941e-01  -2.04311e-02  5.07671e-02   4.48687e-03   1.52523e+00   1.00576e+01   
7.98100e+00   6.41200e+01   8.02258e+00   6.64000e-01   5.21822e-02   -2.28224e-01  -1.57934e-02  5.15209e-02   5.34925e-03   1.52494e+00   1.00563e+01   
8.11600e+00   6.52200e+01   8.07284e+00   6.72000e-01   5.11971e-02   -2.30214e-01  -9.13163e-03  5.29038e-02   6.15655e-03   1.52472e+00   1.00525e+01   
8.25100e+00   6.63000e+01   8.08101e+00   6.80000e-01   4.58291e-02   -2.30695e-01  -3.64406e-03  5.46220e-02   6.83361e-03   1.52457e+00   1.00512e+01   
8.38600e+00   6.74000e+01   8.12440e+00   6.87000e-01   4.05642e-02   -2.31200e-01  8.03911e-04   5.55772e-02   7.59393e-03   1.52450e+00   1.00512e+01   
8.52200e+00   6.85000e+01   8.12516e+00   6.93000e-01   3.65732e-02   -2.30477e-01  3.88095e-03   5.74447e-02   8.35464e-03   1.52449e+00   1.00461e+01   
8.65700e+00   6.96000e+01   8.12756e+00   6.99000e-01   3.30766e-02   -2.30150e-01  4.76300e-03   5.93836e-02   9.07989e-03   1.52455e+00   1.00525e+01   
8.79200e+00   7.07000e+01   8.05948e+00   7.04000e-01   2.93482e-02   -2.29188e-01  9.34569e-03   6.13609e-02   9.79030e-03   1.52465e+00   1.00512e+01   
8.92700e+00   7.17800e+01   7.98701e+00   7.09000e-01   2.85098e-02   -2.27621e-01  1.42316e-02   6.31932e-02   1.04141e-02   1.52480e+00   1.00486e+01   
9.06300e+00   7.28600e+01   7.98475e+00   7.14000e-01   3.12315e-02   -2.25338e-01  1.57397e-02   6.56552e-02   1.11028e-02   1.52502e+00   1.00461e+01   
9.19800e+00   7.39400e+01   7.99174e+00   7.20000e-01   3.22878e-02   -2.23364e-01  1.49627e-02   6.79528e-02   1.17296e-02   1.52528e+00   1.00525e+01   
9.33300e+00   7.50200e+01   8.00069e+00   7.26000e-01   2.98734e-02   -2.21291e-01  2.25863e-02   6.90809e-02   1.24003e-02   1.52557e+00   1.00486e+01   
9.46800e+00   7.61100e+01   7.99832e+00   7.31000e-01   2.56499e-02   -2.17253e-01  3.00421e-02   7.12255e-02   1.28583e-02   1.52591e+00   1.00512e+01   
9.60400e+00   7.71900e+01   7.98825e+00   7.35000e-01   2.66880e-02   -2.13163e-01  3.01866e-02   7.14249e-02   1.34783e-02   1.52626e+00   1.00538e+01   
9.73900e+00   7.82700e+01   8.02180e+00   7.41000e-01   3.13022e-02   -2.09087e-01  3.11009e-02   7.20472e-02   1.41060e-02   1.52663e+00   1.00538e+01   
9.87400e+00   7.93600e+01   8.06336e+00   7.46000e-01   3.17544e-02   -2.04749e-01  3.31790e-02   7.28000e-02   1.47350e-02   1.52701e+00   1.00500e+01   
1.00090e+01   8.04500e+01   8.07387e+00   7.52000e-01   3.27742e-02   -2.00111e-01  3.75776e-02   7.33569e-02   1.52565e-02   1.52738e+00   1.00563e+01   
1.01450e+01   8.15400e+01   8.08361e+00   7.58000e-01   3.56323e-02   -1.94584e-01  4.16331e-02   7.50827e-02   1.59328e-02   1.52752e+00   1.00512e+01   
1.02800e+01   8.26300e+01   8.08244e+00   7.64000e-01   3.74984e-02   -1.88848e-01  4.23112e-02   7.73631e-02   1.65056e-02   1.52790e+00   1.00512e+01   
1.04150e+01   8.37300e+01   8.11127e+00   7.71000e-01   4.08691e-02   -1.83137e-01  4.28796e-02   7.93249e-02   1.71248e-02   1.52826e+00   1.00486e+01   
1.05510e+01   8.48300e+01   8.14276e+00   7.79000e-01   4.12677e-02   -1.77248e-01  4.15200e-02   8.11612e-02   1.77170e-02   1.52859e+00   1.00512e+01   
1.06860e+01   8.59300e+01   8.14193e+00   7.85000e-01   4.10948e-02   -1.71905e-01  4.08454e-02   8.18379e-02   1.83660e-02   1.52890e+00   1.00563e+01   
1.08210e+01   8.70300e+01   8.10258e+00   7.93000e-01   4.37751e-02   -1.66198e-01  4.61284e-02   8.32651e-02   1.90626e-02   1.52918e+00   1.00589e+01   
1.09560e+01   8.81200e+01   8.02610e+00   8.00000e-01   4.47785e-02   -1.59426e-01  4.90199e-02   8.50481e-02   1.96207e-02   1.52943e+00   1.00525e+01   
1.10920e+01   8.92000e+01   7.98602e+00   8.08000e-01   4.74279e-02   -1.52937e-01  4.88333e-02   8.64891e-02   2.02531e-02   1.52965e+00   1.00589e+01   
1.12270e+01   9.02800e+01   7.98624e+00   8.17000e-01   4.93506e-02   -1.46215e-01  4.68737e-02   8.95476e-02   2.07733e-02   1.52984e+00   1.00589e+01   
1.13620e+01   9.13600e+01   7.99559e+00   8.25000e-01   4.86276e-02   -1.40256e-01  4.33681e-02   9.13186e-02   2.13938e-02   1.52999e+00   1.00538e+01   
1.14970e+01   9.24500e+01   8.00361e+00   8.33000e-01   5.03011e-02   -1.34483e-01  4.34670e-02   9.36769e-02   2.20299e-02   1.53038e+00   1.00602e+01   
1.16330e+01   9.35300e+01   8.00114e+00   8.42000e-01   4.90288e-02   -1.28497e-01  4.59704e-02   9.67141e-02   2.27084e-02   1.53049e+00   1.00615e+01   
1.17680e+01   9.46100e+01   8.03335e+00   8.50000e-01   4.43015e-02   -1.22046e-01  4.77463e-02   9.92071e-02   2.33450e-02   1.53056e+00   1.00641e+01   
1.19030e+01   9.57000e+01   8.06736e+00   8.58000e-01   4.19614e-02   -1.15580e-01  4.77629e-02   1.02082e-01   2.39387e-02   1.53061e+00   1.00653e+01   
1.20380e+01   9.67900e+01   8.06476e+00   8.65000e-01   4.03845e-02   -1.09126e-01  4.83009e-02   1.04194e-01   2.45911e-02   1.53062e+00   1.00653e+01   
1.21740e+01   9.78800e+01   8.06197e+00   8.73000e-01   3.70970e-02   -1.02514e-01  5.03158e-02   1.06503e-01   2.51717e-02   1.53060e+00   1.00666e+01   
1.23090e+01   9.89700e+01   8.06073e+00   8.79000e-01   3.51130e-02   -9.55132e-02  5.16354e-02   1.09179e-01   2.58011e-02   1.53055e+00   1.00615e+01   
1.24440e+01   1.00060e+02   8.05834e+00   8.86000e-01   3.33041e-02   -8.85449e-02  5.40695e-02   1.13399e-01   2.64328e-02   1.53048e+00   1.00615e+01   
1.25790e+01   1.01150e+02   8.09634e+00   8.93000e-01   3.03176e-02   -8.08862e-02  5.80429e-02   1.17270e-01   2.70763e-02   1.53036e+00   1.00641e+01   
1.27150e+01   1.02250e+02   8.09051e+00   8.99000e-01   2.67302e-02   -7.28424e-02  6.07295e-02   1.21038e-01   2.76762e-02   1.53023e+00   1.00615e+01   
1.28500e+01   1.03340e+02   8.04006e+00   9.05000e-01   2.16023e-02   -6.44572e-02  6.21121e-02   1.25474e-01   2.82792e-02   1.52977e+00   1.00615e+01   
1.29850e+01   1.04430e+02   8.03073e+00   9.10000e-01   1.78636e-02   -5.60395e-02  6.07817e-02   1.29398e-01   2.89881e-02   1.52954e+00   1.00641e+01   
1.31210e+01   1.05510e+02   7.99165e+00   9.14000e-01   1.51237e-02   -4.80139e-02  5.99182e-02   1.33120e-01   2.95987e-02   1.52928e+00   1.00602e+01   
1.32560e+01   1.06590e+02   7.95901e+00   9.19000e-01   1.05496e-02   -3.98298e-02  6.15391e-02   1.36797e-01   3.02321e-02   1.52899e+00   1.00589e+01   
1.33910e+01   1.07670e+02   7.95717e+00   9.22000e-01   6.50018e-03   -3.13658e-02  6.04860e-02   1.39691e-01   3.07956e-02   1.52869e+00   1.00576e+01   
1.35260e+01   1.08740e+02   7.95272e+00   9.26000e-01   3.94120e-03   -2.34667e-02  6.18777e-02   1.42895e-01   3.13819e-02   1.52836e+00   1.00589e+01   
1.36620e+01   1.09820e+02   7.98263e+00   9.29000e-01   2.22528e-03   -1.46261e-02  6.52456e-02   1.46049e-01   3.19998e-02   1.52801e+00   1.00538e+01   
1.37970e+01   1.10900e+02   8.01182e+00   9.32000e-01   3.45494e-03   -5.81592e-03  6.30563e-02   1.49235e-01   3.25372e-02   1.52766e+00   1.00563e+01   
1.39320e+01   1.11990e+02   8.00580e+00   9.35000e-01   2.25366e-03   2.43242e-03   5.75267e-02   1.52334e-01   3.32067e-02   1.52730e+00   1.00525e+01   
1.40670e+01   1.13070e+02   8.00311e+00   9.38000e-01   -3.31053e-03  9.74664e-03   5.52594e-02   1.55492e-01   3.37657e-02   1.52694e+00   1.00500e+01   
1.42030e+01   1.14150e+02   8.00593e+00   9.40000e-01   -6.32446e-03  1.73816e-02   5.75164e-02   1.59415e-01   3.42959e-02   1.52686e+00   1.00563e+01   
1.43380e+01   1.15230e+02   7.99630e+00   9.42000e-01   -6.81241e-03  2.53065e-02   5.91441e-02   1.63166e-01   3.49442e-02   1.52652e+00   1.00538e+01   
1.44730e+01   1.16310e+02   7.98705e+00   9.45000e-01   -5.41939e-03  3.33819e-02   5.58158e-02   1.66885e-01   3.56065e-02   1.52621e+00   1.00576e+01   
1.46080e+01   1.17400e+02   8.03835e+00   9.47000e-01   -4.11877e-03  4.04062e-02   5.15005e-02   1.69962e-01   3.60762e-02   1.52591e+00   1.00589e+01   
1.47440e+01   1.18490e+02   8.05175e+00   9.50000e-01   -5.20516e-03  4.73142e-02   4.88423e-02   1.73457e-01   3.67132e-02   1.52565e+00   1.00615e+01   
1.48790e+01   1.19570e+02   7.97238e+00   9.53000e-01   -7.10557e-03  5.36195e-02   4.51301e-02   1.77108e-01   3.72092e-02   1.52543e+00   1.00589e+01   
1.50140e+01   1.20650e+02   7.96406e+00   9.55000e-01   -9.10321e-03  5.95234e-02   4.28839e-02   1.80259e-01   3.77013e-02   1.52525e+00   1.00602e+01   
1.51500e+01   1.21730e+02   7.97434e+00   9.57000e-01   -7.77366e-03  6.52209e-02   3.88344e-02   1.82883e-01   3.82897e-02   1.52511e+00   1.00563e+01   
1.52850e+01   1.22800e+02   7.95270e+00   9.59000e-01   -4.32151e-03  7.00292e-02   3.04932e-02   1.86571e-01   3.87967e-02   1.52503e+00   1.00576e+01   
1.54200e+01   1.23880e+02   7.96102e+00   9.63000e-01   -3.55625e-03  7.34698e-02   2.73476e-02   1.90059e-01   3.92862e-02   1.52500e+00   1.00563e+01   
1.55550e+01   1.24960e+02   7.97016e+00   9.66000e-01   -4.32745e-03  7.74272e-02   2.77424e-02   1.93289e-01   3.97298e-02   1.52499e+00   1.00538e+01   
1.56910e+01   1.26040e+02   8.01845e+00   9.69000e-01   -3.47429e-03  8.09750e-02   2.41538e-02   1.96997e-01   4.01179e-02   1.52506e+00   1.00563e+01   
1.58260e+01   1.27130e+02   8.06382e+00   9.72000e-01   -3.55293e-03  8.39618e-02   2.17125e-02   2.01438e-01   4.05720e-02   1.52519e+00   1.00563e+01   
1.59610e+01   1.28220e+02   8.06901e+00   9.75000e-01   -4.95897e-03  8.68489e-02   1.70173e-02   2.05439e-01   4.09257e-02   1.52537e+00   1.00538e+01   
1.60960e+01   1.29310e+02   8.07479e+00   9.79000e-01   -3.98390e-03  8.85655e-02   1.11416e-02   2.09461e-01   4.13480e-02   1.52559e+00   1.00602e+01   
1.62320e+01   1.30400e+02   8.07674e+00   9.82000e-01   -2.86883e-03  8.98633e-02   7.01432e-03   2.14501e-01   4.17200e-02   1.52585e+00   1.00615e+01   
1.63670e+01   1.31490e+02   8.08206e+00   9.86000e-01   -4.60510e-04  9.04626e-02   4.43641e-03   2.18956e-01   4.21651e-02   1.52614e+00   1.00563e+01   
1.65020e+01   1.32590e+02   8.09213e+00   9.91000e-01   3.28906e-04   9.10630e-02   3.94671e-03   2.24956e-01   4.25005e-02   1.52646e+00   1.00563e+01   
1.66370e+01   1.33680e+02   8.09293e+00   9.95000e-01   -2.39286e-03  9.15306e-02   2.73031e-03   2.30973e-01   4.28409e-02   1.52679e+00   1.00563e+01   
1.67730e+01   1.34780e+02   8.09191e+00   9.99000e-01   -4.23095e-04  9.18022e-02   1.84379e-04   2.37136e-01   4.31989e-02   1.52714e+00   1.00538e+01   
1.69080e+01   1.35870e+02   8.09200e+00   1.00400e+00   1.51327e-03   9.15804e-02   -4.49121e-03  2.43391e-01   4.35132e-02   1.52727e+00   1.00576e+01   
1.70430e+01   1.36970e+02   8.08901e+00   1.00800e+00   -4.02045e-04  9.05869e-02   -6.37427e-03  2.49197e-01   4.38335e-02   1.52763e+00   1.00538e+01   
1.71780e+01   1.38060e+02   8.08633e+00   1.01300e+00   -1.92859e-03  8.98558e-02   -3.96632e-03  2.54870e-01   4.42653e-02   1.52798e+00   1.00512e+01   
1.73140e+01   1.39150e+02   8.04389e+00   1.01800e+00   -3.56513e-03  8.95138e-02   -3.72808e-03  2.61413e-01   4.45704e-02   1.52831e+00   1.00512e+01   
1.74490e+01   1.40240e+02   8.00145e+00   1.02200e+00   -2.43261e-03  8.88474e-02   -3.57668e-03  2.67956e-01   4.50020e-02   1.52862e+00   1.00538e+01   
1.75840e+01   1.41320e+02   7.99951e+00   1.02700e+00   -5.73641e-04  8.85460e-02   -1.86571e-03  2.75514e-01   4.53766e-02   1.52890e+00   1.00602e+01   
1.77200e+01   1.42400e+02   8.03547e+00   1.03200e+00   -1.40684e-03  8.83426e-02   -5.75439e-03  2.82334e-01   4.57609e-02   1.52914e+00   1.00615e+01   
1.78550e+01   1.43490e+02   8.07082e+00   1.03700e+00   -2.38274e-03  8.69893e-02   -9.58083e-03  2.88746e-01   4.61930e-02   1.52936e+00   1.00563e+01   
1.79900e+01   1.44580e+02   8.06613e+00   1.04300e+00   -5.62360e-03  8.57506e-02   -9.03543e-03  2.95913e-01   4.66270e-02   1.52953e+00   1.00563e+01   
1.81250e+01   1.45670e+02   8.05500e+00   1.04700e+00   -9.83725e-03  8.45451e-02   -9.79282e-03  3.02819e-01   4.72204e-02   1.52968e+00   1.00602e+01   
