time x0G u y0G v psi r delta 
[s] [m] [m/s] [m] [m/s] [rad] [rad/s] [rad/s] [rad] 
0.000000 0.000000 5.115880 0.000000 0.000000 0.000000 0.000000 0.000000
0.477673 2.646790 5.125430 0.228172 0.000000 -0.020000 -0.003831 0.010000
0.955346 4.996960 5.144540 0.068451 0.000000 -0.040000 -0.001905 1.649998
1.433020 7.438400 5.144540 0.205355 0.000000 -0.040000 0.001926 4.109998
1.910690 9.993920 5.149320 0.136903 0.000000 -0.040000 0.019176 6.719993
2.388370 12.754800 5.149320 0.159720 0.000000 -0.020000 0.047920 9.340014
2.866040 15.310300 5.158870 0.091269 0.000000 0.020000 0.080494 11.959978
3.343710 17.546400 5.163650 0.136903 0.000000 0.080000 0.120752 14.560003
3.821390 20.398600 5.154090 -0.022817 0.000000 0.160000 0.162915 17.189994
4.299060 22.657500 5.163650 0.000000 0.000000 0.260000 0.205098 19.779993
4.776730 25.418300 5.154090 0.022817 0.000000 0.380000 0.249166 22.420010
5.254410 27.745700 5.158870 -0.114086 0.000000 0.530000 0.293255 24.619996
5.732080 30.506600 5.154090 -0.091269 0.000000 0.690002 0.343101 25.160009
6.209750 33.062100 5.158870 -0.159720 0.000000 0.889998 0.394852 25.140013
6.687430 35.389400 5.168420 -0.319440 0.000000 1.110003 0.452339 25.039975
7.165100 38.059000 5.168420 -0.091269 0.000000 1.360001 0.504089 24.999982
7.642770 40.500500 5.182750 -0.456343 0.000000 1.640000 0.561597 24.999982
8.120450 42.964700 5.177980 -0.319440 0.000000 1.930003 0.615254 24.999982
8.598120 45.611500 5.177980 -0.593247 0.000000 2.250000 0.661268 24.999982
9.075790 48.053000 5.182750 -0.456343 0.000000 2.589998 0.703432 24.999982
9.553460 50.608500 5.182750 -0.524795 0.000000 2.949999 0.745596 24.999982
10.031100 53.164000 5.197080 -0.593247 0.000000 3.319998 0.780093 24.999982
10.508800 55.902100 5.197080 -0.570429 0.000000 3.709999 0.816522 24.999982
10.986500 58.161000 5.192310 -0.524795 0.000000 4.130000 0.864439 24.999982
11.464200 60.807800 5.201860 -0.798601 0.000000 4.559999 0.902769 24.999982
11.941800 63.249200 5.216190 -0.661698 0.000000 5.010000 0.943008 24.999982
12.419500 66.101400 5.206640 -0.844235 0.000000 5.479998 0.983264 24.999982
12.897200 68.360300 5.216190 -0.798601 0.000000 5.960022 1.013935 24.999982
13.374900 70.915800 5.225750 -0.867053 0.000000 6.450015 1.040772 24.999982
13.852500 73.562600 5.230520 -0.638881 0.000000 6.960005 1.071443 24.999982
14.330200 76.118100 5.230520 -0.707332 0.000000 7.469995 1.088694 24.999982
14.807900 78.582300 5.220970 -0.570429 0.000000 8.010007 1.117440 24.999982
15.285500 81.229100 5.235300 -0.844235 0.000000 8.550020 1.150012 24.999982
15.763200 83.670600 5.230520 -0.707332 0.000000 9.109972 1.174947 24.999982
16.240900 86.134800 5.225750 -0.570429 0.000000 9.680007 1.201762 24.999982
16.718600 88.667500 5.235300 -0.638881 0.000000 10.249986 1.228599 24.999982
17.196200 91.040500 5.244850 -0.273806 0.000000 10.840018 1.240116 24.999982
17.673900 93.801400 5.240080 -0.250989 0.000000 11.420023 1.251609 24.999982
18.151600 96.448200 5.230520 -0.022817 0.000000 12.009998 1.259270 24.999982
18.629300 98.798400 5.235300 0.296623 0.000000 12.599972 1.265028 24.999982
19.106900 101.559000 5.220970 0.319440 0.000000 13.210000 1.276521 24.999982
19.584600 103.818000 5.220970 0.365075 0.000000 13.820028 1.295698 24.999982
20.062300 106.465000 5.225750 0.616064 0.000000 14.429999 1.309117 24.999982
20.539900 108.633000 5.225750 0.844235 0.000000 15.060024 1.324444 24.999982
21.017600 111.371000 5.220970 0.889870 0.000000 15.680021 1.339764 24.999982
21.495300 113.744000 5.230520 1.232130 0.000000 16.320015 1.347448 24.999982
21.973000 116.390000 5.230520 1.460300 0.000000 16.949982 1.353183 24.999982
22.450600 118.855000 5.220970 1.597200 0.000000 17.580007 1.357016 24.999982
22.928300 121.205000 5.206640 1.939460 0.000000 18.220001 1.358941 24.999982
23.406000 123.760000 5.201860 2.395800 0.000000 18.859994 1.368527 24.999982
23.883700 126.225000 5.192310 2.532710 0.000000 19.510015 1.380020 24.999982
24.361300 128.689000 5.187530 3.171590 0.000000 20.170005 1.391514 24.999982
24.839000 131.039000 5.192310 3.513840 0.000000 20.829995 1.404933 24.999982
25.316700 133.709000 5.177980 3.764830 0.000000 21.489985 1.420282 24.999982
25.794400 136.059000 5.168420 4.107090 0.000000 22.160002 1.418357 24.999982
26.272000 138.523000 5.154090 4.745970 0.000000 22.819992 1.422184 24.999982
26.749700 140.896000 5.158870 5.088230 0.000000 23.490009 1.427943 24.999982
27.227400 143.452000 5.144540 5.544570 0.000000 24.160026 1.426017 24.999982
27.705000 145.710000 5.139760 6.092190 0.000000 24.829985 1.435603 24.999982
28.182700 148.289000 5.120660 6.525710 0.000000 25.509972 1.447120 24.999982
28.660400 150.753000 5.125430 7.187410 0.000000 26.190015 1.452855 24.999982
29.138100 153.103000 5.111100 7.529670 0.000000 26.880028 1.456688 24.999982
29.615700 155.567000 5.096770 8.168550 0.000000 27.560015 1.460515 24.999982
30.093400 157.826000 5.096770 8.716160 0.000000 28.229974 1.452855 24.999982
30.571100 160.291000 5.092000 9.377860 0.000000 28.910018 1.449022 24.999982
31.048800 162.344000 5.092000 9.834200 0.000000 29.590004 1.452855 24.999982
31.526400 164.808000 5.096770 10.473100 0.000000 30.269991 1.454780 24.999982
32.004100 166.976000 5.082440 11.226000 0.000000 30.960004 1.458613 24.999982
32.481800 169.440000 5.063340 11.887700 0.000000 31.650017 1.470107 24.999982
32.959500 171.608000 5.053780 12.640700 0.000000 32.339972 1.473934 24.999982
33.437100 173.776000 5.044230 13.393700 0.000000 33.029986 1.473934 24.999982
33.914800 176.149000 5.034680 14.260700 0.000000 33.719999 1.479692 24.999982
34.392500 178.613000 5.034680 14.899600 0.000000 34.410012 1.477767 24.999982
34.870100 180.780000 5.020350 15.652600 0.000000 35.100025 1.475865 24.999982
35.347800 182.857000 5.020350 16.633700 0.000000 35.789981 1.472032 24.999982
35.825500 185.230000 5.020350 17.478000 0.000000 36.470024 1.470107 24.999982
36.303200 187.169000 5.020350 18.139700 0.000000 37.170007 1.473934 24.999982
36.780800 189.542000 4.991690 19.006700 0.000000 37.860020 1.479692 24.999982
37.258500 191.619000 4.977360 19.965000 0.000000 38.549976 1.479692 24.999982
37.736200 193.878000 4.977360 21.037400 0.000000 39.239989 1.481617 24.999982
38.213900 195.749000 4.958250 21.904500 0.000000 39.930002 1.481617 24.999982
38.691500 198.122000 4.943920 22.748700 0.000000 40.620015 1.473934 24.999982
39.169200 200.403000 4.924810 23.821100 0.000000 41.319997 1.475865 24.999982
39.646900 202.251000 4.934360 24.688200 0.000000 42.010010 1.483525 24.999982
40.124600 204.533000 4.934360 25.737800 0.000000 42.709993 1.487358 24.999982
40.602200 206.381000 4.929590 26.604800 0.000000 43.409975 1.491186 24.999982
41.079900 208.572000 4.924810 27.882600 0.000000 44.110015 1.495019 24.999982
41.557600 210.420000 4.905700 28.749600 0.000000 44.800028 1.493111 24.999982
42.035200 212.610000 4.891370 30.027400 0.000000 45.500011 1.491186 24.999982
42.512900 214.459000 4.877040 30.894500 0.000000 46.190024 1.487358 24.999982
42.990600 216.535000 4.857940 31.852800 0.000000 46.879980 1.477767 24.999982
43.468300 218.611000 4.857940 33.335900 0.000000 47.569993 1.473934 24.999982
43.945900 220.482000 4.857940 34.202900 0.000000 48.249979 1.472032 24.999982
44.423600 222.262000 4.853160 35.777300 0.000000 48.939992 1.464371 24.999982
44.901300 224.019000 4.843610 36.849700 0.000000 49.630005 1.468199 24.999982
45.379000 225.981000 4.838830 38.036200 0.000000 50.320018 1.477767 24.999982
45.856600 227.761000 4.829280 39.108600 0.000000 51.020001 1.481617 24.999982
46.334300 229.929000 4.814950 40.363600 0.000000 51.710014 1.477767 24.999982
46.812000 231.891000 4.795840 41.550100 0.000000 52.390000 1.475865 24.999982
47.289700 233.351000 4.781510 42.736600 0.000000 53.080013 1.468199 24.999982
47.767300 235.336000 4.776730 43.900200 0.000000 53.760000 1.462440 24.999982
48.245000 236.911000 4.767180 45.383400 0.000000 54.439986 1.464371 24.999982
48.722700 238.873000 4.767180 46.569900 0.000000 55.129999 1.462440 24.999982
49.200300 240.744000 4.743300 47.938900 0.000000 55.809985 1.462440 24.999982
49.678000 242.410000 4.748070 49.216600 0.000000 56.499998 1.466273 24.999982
50.155700 243.984000 4.738520 50.722600 0.000000 57.179985 1.464371 24.999982
50.633400 245.444000 4.738520 51.909100 0.000000 57.869883 1.466273 24.999982
51.111000 247.315000 4.728970 53.278100 0.000000 58.559724 1.468199 24.999982
51.588700 249.186000 4.714630 54.669900 0.000000 59.239825 1.468199 24.999982
52.066400 250.464000 4.705080 56.267100 0.000000 59.930239 1.464371 24.999982
52.544100 252.335000 4.685970 57.636200 0.000000 60.609767 1.460515 24.999982
53.021700 253.704000 4.685970 59.028000 0.000000 61.289868 1.454780 24.999982
53.499400 255.370000 4.681200 60.305800 0.000000 61.969969 1.450953 24.999982
53.977100 257.058000 4.676420 62.108300 0.000000 62.639757 1.456688 24.999982
54.454800 258.427000 4.690750 63.500200 0.000000 63.319858 1.450953 24.999982
54.932400 260.093000 4.681200 64.778000 0.000000 63.999959 1.445194 24.999982
55.410100 261.348000 4.685970 66.375200 0.000000 64.669746 1.449022 24.999982
55.887800 262.922000 4.652540 67.858300 0.000000 65.349847 1.445194 24.999982
56.365400 264.497000 4.652540 69.364200 0.000000 66.029948 1.450953 24.999982
56.843100 265.752000 4.638210 70.961400 0.000000 66.710049 1.452855 24.999982
57.320800 267.235000 4.633430 72.649900 0.000000 67.379837 1.445194 24.999982
57.798500 268.604000 4.623880 74.041700 0.000000 68.050197 1.439436 24.999982
58.276100 269.859000 4.609550 75.638900 0.000000 68.719985 1.439436 24.999982
58.753800 271.228000 4.614320 77.030800 0.000000 69.389773 1.433701 24.999982
59.231500 272.620000 4.609550 78.947400 0.000000 70.060133 1.433701 24.999982
59.709200 273.760000 4.619100 80.225200 0.000000 70.729921 1.435603 24.999982
60.186800 275.244000 4.619100 81.936500 0.000000 71.400282 1.431776 24.999982
60.664500 276.407000 4.595220 83.739000 0.000000 72.070069 1.429868 24.999982
61.142200 277.776000 4.585660 85.130900 0.000000 72.730117 1.422184 24.999982
61.619800 278.940000 4.566560 86.933400 0.000000 73.390164 1.420282 24.999982
62.097500 280.218000 4.557000 88.530600 0.000000 74.050211 1.418357 24.999982
62.575200 281.495000 4.557000 90.127800 0.000000 74.719999 1.420282 24.999982
63.052900 282.750000 4.542670 91.725000 0.000000 75.380046 1.420282 24.999982
63.530500 283.503000 4.547450 93.345100 0.000000 76.040094 1.420282 24.999982
64.008200 284.690000 4.533120 95.147600 0.000000 76.709881 1.420282 24.999982
64.485900 285.945000 4.537900 96.744800 0.000000 77.369929 1.422184 24.999982
64.963600 286.926000 4.547450 98.456100 0.000000 78.039716 1.418357 24.999982
65.441200 287.884000 4.523570 100.167000 0.000000 78.699764 1.426017 24.999982
65.918900 289.048000 4.509240 101.970000 0.000000 79.370124 1.422184 24.999982
66.396600 290.120000 4.494910 103.476000 0.000000 80.030172 1.424110 24.999982
66.874300 290.987000 4.490130 105.393000 0.000000 80.690219 1.422184 24.999982
67.351900 292.037000 4.485350 106.898000 0.000000 81.350267 1.410691 24.999982
67.829600 292.904000 4.485350 108.815000 0.000000 82.000001 1.404933 24.999982
68.307300 293.862000 4.475800 110.526000 0.000000 82.660048 1.403030 24.999982
68.784900 294.752000 4.480580 112.443000 0.000000 83.309782 1.399197 24.999982
69.262600 295.802000 4.494910 113.949000 0.000000 83.969830 1.403030 24.999982
69.740300 296.464000 4.494910 115.752000 0.000000 84.629877 1.408766 24.999982
70.218000 297.422000 4.480580 117.463000 0.000000 85.289924 1.406863 24.999982
70.695600 298.403000 4.447140 119.174000 0.000000 85.949972 1.412616 24.999982
71.173300 298.951000 4.442360 121.205000 0.000000 86.600279 1.412616 24.999982
71.651000 299.932000 4.432810 122.916000 0.000000 87.259753 1.404933 24.999982
72.128700 300.593000 4.437580 124.741000 0.000000 87.910060 1.397272 24.999982
72.606300 301.346000 4.432810 126.362000 0.000000 88.550054 1.393445 24.999982
73.084000 302.008000 4.428030 128.164000 0.000000 89.199788 1.387687 24.999982
73.561700 302.966000 4.442360 129.875000 0.000000 89.850096 1.391514 24.999982
74.039400 303.628000 4.442360 131.701000 0.000000 90.499830 1.391514 24.999982
74.517000 304.199000 4.442360 133.731000 0.000000 91.150137 1.383854 24.999982
74.994700 304.952000 4.418480 135.329000 0.000000 91.790131 1.383854 24.999982
75.472400 305.522000 4.408920 137.359000 0.000000 92.439865 1.383854 24.999982
75.950000 306.070000 4.394590 139.390000 0.000000 93.079859 1.378118 24.999982
76.427700 306.845000 4.380260 141.010000 0.000000 93.710112 1.370435 24.999982
76.905400 306.982000 4.385040 142.836000 0.000000 94.350106 1.364700 24.999982
77.383100 307.735000 4.370710 144.456000 0.000000 94.990100 1.362774 24.999982
77.860700 308.306000 4.370710 146.486000 0.000000 95.630094 1.366602 24.999982
78.338400 308.762000 4.380260 148.198000 0.000000 96.270088 1.372360 24.999982
78.816100 309.218000 4.365930 149.932000 0.000000 96.910081 1.374268 24.999982
79.293800 309.789000 4.375490 151.940000 0.000000 97.550075 1.376193 24.999982
79.771400 310.154000 4.365930 153.879000 0.000000 98.199809 1.381951 24.999982
80.249100 310.907000 4.332500 155.499000 0.000000 98.839803 1.380020 24.999982
80.726800 311.044000 4.327720 157.324000 0.000000 99.490110 1.385779 24.999982
81.204500 311.409000 4.327720 159.264000 0.000000 100.130104 1.381951 24.999982
81.682100 311.774000 4.327720 161.181000 0.000000 100.770098 1.376193 24.999982
82.159800 312.116000 4.318170 163.120000 0.000000 101.410092 1.376193 24.999982
82.637500 312.276000 4.322940 164.945000 0.000000 102.050086 1.374268 24.999982
83.115100 312.527000 4.318170 166.565000 0.000000 102.690080 1.368527 24.999982
83.592800 312.892000 4.322940 168.505000 0.000000 103.319760 1.364700 24.999982
84.070500 313.234000 4.322940 170.444000 0.000000 103.950014 1.362774 24.999982
84.548200 313.394000 4.313390 172.270000 0.000000 104.590008 1.358941 24.999982
85.025800 313.850000 4.284730 173.981000 0.000000 105.220261 1.358941 24.999982
85.503500 313.690000 4.275180 175.943000 0.000000 105.849942 1.358941 24.999982
85.981200 314.056000 4.275180 177.860000 0.000000 106.480196 1.355108 24.999982
86.458900 314.307000 4.256070 179.503000 0.000000 107.109876 1.349356 24.999982
86.936500 314.443000 4.260850 181.328000 0.000000 107.740130 1.351281 24.999982
87.414200 314.512000 4.256070 183.359000 0.000000 108.369810 1.351281 24.999982
87.891900 314.968000 4.251290 185.093000 0.000000 109.000064 1.351281 24.999982
88.369600 314.694000 4.270400 186.736000 0.000000 109.629745 1.357016 24.999982
88.847200 314.763000 4.275180 188.766000 0.000000 110.259998 1.353183 24.999982
89.324900 314.694000 4.256070 190.501000 0.000000 110.890252 1.355108 24.999982
89.802600 314.854000 4.241740 192.349000 0.000000 111.510192 1.353183 24.999982
90.280200 314.991000 4.241740 194.174000 0.000000 112.139873 1.345523 24.999982
90.757900 314.854000 4.227410 196.114000 0.000000 112.759813 1.341690 24.999982
91.235600 314.786000 4.227410 197.848000 0.000000 113.379753 1.335931 24.999982
91.713300 314.740000 4.222630 199.582000 0.000000 114.000267 1.332104 24.999982
92.190900 314.580000 4.208300 201.544000 0.000000 114.609894 1.322513 24.999982
92.668600 314.740000 4.213080 203.369000 0.000000 115.229834 1.324444 24.999982
93.146300 314.375000 4.232180 205.218000 0.000000 115.840034 1.320610 24.999982
93.624000 314.626000 4.236960 206.838000 0.000000 116.450234 1.316777 24.999982
94.101600 314.261000 4.222630 208.686000 0.000000 117.059861 1.320610 24.999982
94.579300 314.124000 4.193970 210.625000 0.000000 117.679802 1.316777 24.999982
95.057000 313.850000 4.184420 212.268000 0.000000 118.290002 1.318685 24.999982
95.534600 313.805000 4.170090 214.002000 0.000000 118.900202 1.320610 24.999982
96.012300 313.440000 4.160530 215.850000 0.000000 119.520142 1.314852 24.999982
96.490000 313.166000 4.170090 217.493000 0.000000 120.129769 1.320610 24.999982
96.967700 312.915000 4.160530 219.136000 0.000000 120.739969 1.322513 24.999982
97.445300 312.846000 4.179640 220.870000 0.000000 121.350169 1.314852 24.999982
97.923000 312.504000 4.179640 222.718000 0.000000 121.959796 1.305267 24.999982
98.400700 312.139000 4.170090 224.567000 0.000000 122.569996 1.307192 24.999982
98.878400 311.774000 4.165310 226.415000 0.000000 123.180196 1.309117 24.999982
99.356000 311.432000 4.150980 228.263000 0.000000 123.800137 1.316777 24.999982
99.833700 311.249000 4.150980 229.700000 0.000000 124.409764 1.320610 24.999982
100.311000 310.679000 4.141430 231.435000 0.000000 125.030277 1.322513 24.999982
100.789000 310.131000 4.136650 233.192000 0.000000 125.639904 1.322513 24.999982
101.267000 309.766000 4.131870 235.040000 0.000000 126.259845 1.322513 24.999982
101.744000 309.287000 4.131870 236.591000 0.000000 126.870045 1.322513 24.999982
102.222000 308.739000 4.141430 238.325000 0.000000 127.480245 1.309117 24.999982
102.700000 308.169000 4.146200 240.082000 0.000000 128.080131 1.301434 24.999982
103.177000 307.804000 4.136650 241.930000 0.000000 128.680018 1.289940 24.999982
103.655000 307.233000 4.122320 243.687000 0.000000 129.279905 1.288015 24.999982
104.133000 306.868000 4.107990 245.011000 0.000000 129.879792 1.293773 24.999982
104.610000 306.298000 4.098440 246.768000 0.000000 130.489992 1.297600 24.999982
105.088000 305.727000 4.093660 248.525000 0.000000 131.089879 1.293773 24.999982
105.566000 305.180000 4.088880 250.282000 0.000000 131.689766 1.293773 24.999982
106.043000 304.586000 4.088880 251.514000 0.000000 132.290225 1.291865 24.999982
106.521000 303.925000 4.088880 253.476000 0.000000 132.890112 1.288015 24.999982
106.999000 303.354000 4.098440 255.210000 0.000000 133.489999 1.293773 24.999982
107.476000 302.601000 4.112770 256.876000 0.000000 134.100199 1.293773 24.999982
107.954000 302.122000 4.112770 258.427000 0.000000 134.700086 1.293773 24.999982
108.432000 301.438000 4.088880 259.865000 0.000000 135.299973 1.299531 24.999982
108.910000 300.685000 4.079330 261.530000 0.000000 135.890119 1.284182 24.999982
109.387000 299.909000 4.069780 263.173000 0.000000 136.490006 1.280354 24.999982
109.865000 299.224000 4.069780 264.611000 0.000000 137.089893 1.286107 24.999982
110.343000 298.563000 4.050670 266.071000 0.000000 137.680039 1.282280 24.999982
110.820000 297.992000 4.055450 267.828000 0.000000 138.279926 1.280354 24.999982
111.298000 297.011000 4.041120 269.380000 0.000000 138.879813 1.288015 24.999982
111.776000 296.235000 4.069780 271.022000 0.000000 139.480273 1.289940 24.999982
112.253000 295.460000 4.055450 272.688000 0.000000 140.080160 1.284182 24.999982
112.731000 294.684000 4.065000 273.829000 0.000000 140.680046 1.291865 24.999982
113.209000 293.703000 4.041120 275.380000 0.000000 141.279933 1.291865 24.999982
113.686000 292.927000 4.022010 277.046000 0.000000 141.879820 1.289940 24.999982
114.164000 291.946000 4.017230 278.598000 0.000000 142.469966 1.288015 24.999982
114.642000 291.261000 3.998130 280.035000 0.000000 143.069853 1.284182 24.999982
115.119000 290.394000 4.007680 281.404000 0.000000 143.669740 1.282280 24.999982
115.597000 289.413000 3.998130 282.956000 0.000000 144.259887 1.284182 24.999982
116.075000 288.432000 4.002900 284.507000 0.000000 144.859773 1.280354 24.999982
116.552000 287.542000 3.998130 285.854000 0.000000 145.460233 1.282280 24.999982
117.030000 286.447000 4.002900 287.108000 0.000000 146.060120 1.286107 24.999982
117.508000 285.488000 4.022010 288.660000 0.000000 146.650267 1.282280 24.999982
117.985000 284.507000 4.060220 290.234000 0.000000 147.239840 1.278446 24.999982
118.463000 283.709000 3.983790 291.375000 0.000000 147.829987 1.272688 24.999982
118.941000 282.522000 3.974240 292.836000 0.000000 148.420133 1.270763 24.999982
119.418000 281.541000 3.959910 294.387000 0.000000 149.020020 1.268861 24.999982
119.896000 280.674000 3.964690 295.733000 0.000000 149.599853 1.270763 24.999982
120.374000 279.875000 3.959910 296.874000 0.000000 150.190000 1.265028 24.999982
