time x0G u y0G v psi r delta 
[s] [m] [m/s] [m] [m/s] [rad] [rad/s] [rad/s] [rad] 
0.000000 0.000000 5.134990 0.000000 0.000000 0.000000 0.000000 0.000000
0.477673 2.578340 5.144540 0.068451 0.000000 0.010000 0.005757 0.000000
0.955346 5.179500 5.125430 0.159720 0.000000 0.020000 0.005757 0.000000
1.433020 7.849110 5.139760 0.045634 0.000000 0.030000 0.009588 1.219999
1.910690 10.450300 5.158870 0.136903 0.000000 0.050000 0.019176 3.839998
2.388370 13.051400 5.163650 0.228172 0.000000 0.080000 0.030670 6.470011
2.866040 15.721000 5.168420 0.091269 0.000000 0.130000 0.055582 9.049983
3.343710 18.322200 5.173200 0.182537 0.000000 0.190000 0.082421 11.690001
3.821390 21.060300 5.187530 -0.136903 0.000000 0.260000 0.118826 14.149995
4.299060 23.433200 5.192310 -0.114086 0.000000 0.350000 0.149496 15.120012
4.776730 26.262600 5.182750 0.022817 0.000000 0.460000 0.183996 15.120012
5.254410 28.932200 5.177980 -0.068451 0.000000 0.579999 0.212760 15.089989
5.732080 31.533300 5.187530 0.000000 0.000000 0.709998 0.243430 15.010005
6.209750 33.906300 5.168420 0.022817 0.000000 0.859998 0.270248 14.999978
6.687430 36.872600 5.163650 -0.228172 0.000000 1.020002 0.293255 14.990008
7.165100 39.245500 5.182750 -0.205355 0.000000 1.189999 0.329682 14.990008
7.642770 42.052100 5.182750 -0.045634 0.000000 1.379997 0.360330 14.990008
8.120450 44.516300 5.201860 -0.250989 0.000000 1.589998 0.391000 14.990008
8.598120 47.117500 5.201860 -0.159720 0.000000 1.799998 0.414007 14.990008
9.075790 49.924000 5.211420 0.000000 0.000000 2.030001 0.438919 14.999978
9.553460 52.593600 5.216190 -0.136903 0.000000 2.259998 0.465758 14.999978
10.031100 55.194700 5.197080 -0.045634 0.000000 2.499998 0.475346 14.999978
10.508800 57.932800 5.216190 -0.387892 0.000000 2.760001 0.502184 14.999978
10.986500 60.534000 5.211420 -0.296623 0.000000 3.019998 0.525171 14.999978
11.464200 63.135100 5.206640 -0.205355 0.000000 3.300002 0.548178 14.999978
11.941800 65.667800 5.220970 0.091269 0.000000 3.589999 0.575015 14.999978
12.419500 68.177700 5.220970 -0.296623 0.000000 3.890000 0.596100 14.999978
12.897200 71.007000 5.235300 -0.136903 0.000000 4.190000 0.609518 14.999978
13.374900 73.676700 5.244850 -0.273806 0.000000 4.499999 0.622937 14.999978
13.852500 76.277800 5.249630 -0.182537 0.000000 4.809998 0.628672 14.999978
14.330200 78.810500 5.244850 0.114086 0.000000 5.120002 0.638258 14.999978
14.807900 81.685500 5.230520 0.045634 0.000000 5.449997 0.655510 14.999978
15.285500 84.058500 5.225750 0.068451 0.000000 5.779998 0.670836 14.999978
15.763200 86.956200 5.235300 0.022817 0.000000 6.119991 0.682347 14.999978
16.240900 89.557400 5.240080 0.114086 0.000000 6.459985 0.695771 14.999978
16.718600 92.363900 5.240080 0.273806 0.000000 6.819974 0.711092 14.999978
17.196200 94.759700 5.235300 0.296623 0.000000 7.180021 0.726436 14.999978
17.673900 97.292400 5.240080 0.593247 0.000000 7.540010 0.745596 14.999978
18.151600 99.962000 5.244850 0.479161 0.000000 7.910026 0.749423 14.999978
18.629300 102.700000 5.254410 0.844235 0.000000 8.279985 0.757089 14.999978
19.106900 105.301000 5.249630 0.935504 0.000000 8.650001 0.766675 14.999978
19.584600 108.131000 5.263960 1.095220 0.000000 9.020017 0.776260 14.999978
20.062300 110.504000 5.263960 1.118040 0.000000 9.389976 0.783927 14.999978
20.539900 113.264000 5.268740 1.505930 0.000000 9.770019 0.793512 14.999978
21.017600 115.843000 5.240080 1.597200 0.000000 10.150005 0.805006 14.999978
21.495300 118.672000 5.263960 1.756920 0.000000 10.540017 0.816522 14.999978
21.973000 120.977000 5.273510 1.985090 0.000000 10.939999 0.828016 14.999978
22.450600 123.806000 5.273510 2.144810 0.000000 11.339981 0.831843 14.999978
22.928300 126.339000 5.263960 2.464250 0.000000 11.740020 0.841434 14.999978
23.406000 129.145000 5.278290 2.623970 0.000000 12.140002 0.845262 14.999978
23.883700 131.678000 5.278290 2.920600 0.000000 12.539983 0.843337 14.999978
24.361300 134.439000 5.278290 3.308490 0.000000 12.949992 0.847193 14.999978
24.839000 137.108000 5.268740 3.171590 0.000000 13.370027 0.858680 14.999978
25.316700 139.846000 5.249630 3.559480 0.000000 13.790006 0.866347 14.999978
25.794400 142.311000 5.259180 4.084270 0.000000 14.209984 0.874007 14.999978
26.272000 144.843000 5.259180 4.380900 0.000000 14.639988 0.885523 14.999978
26.749700 147.376000 5.263960 4.700340 0.000000 15.069993 0.895086 14.999978
27.227400 150.205000 5.273510 4.860060 0.000000 15.499998 0.897017 14.999978
27.705000 152.738000 5.278290 5.156680 0.000000 15.939972 0.908511 14.999978
28.182700 155.476000 5.273510 5.544570 0.000000 16.369977 0.898942 14.999978
28.660400 157.940000 5.259180 6.069370 0.000000 16.810009 0.902769 14.999978
29.138100 160.701000 5.259180 6.434440 0.000000 17.249983 0.916194 14.999978
29.615700 163.166000 5.268740 6.959240 0.000000 17.710011 0.923854 14.999978
30.093400 165.904000 5.273510 7.347130 0.000000 18.160012 0.933440 14.999978
30.571100 168.436000 5.268740 7.666570 0.000000 18.610013 0.943008 14.999978
31.048800 171.129000 5.268740 8.259820 0.000000 19.060014 0.939175 14.999978
31.526400 173.593000 5.263960 8.784610 0.000000 19.510015 0.933440 14.999978
32.004100 176.263000 5.263960 9.377860 0.000000 19.969986 0.937273 14.999978
32.481800 178.727000 5.268740 9.902650 0.000000 20.419987 0.939175 14.999978
32.959500 181.488000 5.268740 10.267700 0.000000 20.889984 0.948767 14.999978
33.437100 184.021000 5.259180 10.587200 0.000000 21.359981 0.964087 14.999978
33.914800 186.713000 5.263960 11.180400 0.000000 21.829978 0.971771 14.999978
34.392500 189.109000 5.259180 11.933400 0.000000 22.299976 0.973679 14.999978
34.870100 191.778000 5.249630 12.526600 0.000000 22.769973 0.977512 14.999978
35.347800 194.243000 5.244850 13.051400 0.000000 23.249997 0.977512 14.999978
35.825500 196.867000 5.254410 13.850000 0.000000 23.719994 0.975604 14.999978
36.303200 199.331000 5.244850 14.374800 0.000000 24.189992 0.973679 14.999978
36.780800 202.000000 5.263960 14.990900 0.000000 24.659989 0.971771 14.999978
37.258500 204.396000 5.259180 15.721000 0.000000 25.140013 0.977512 14.999978
37.736200 207.020000 5.263960 16.542500 0.000000 25.619980 0.990931 14.999978
38.213900 209.416000 5.254410 17.272600 0.000000 26.100004 0.994758 14.999978
38.691500 212.108000 5.263960 17.865800 0.000000 26.589997 1.002441 14.999978
39.169200 214.504000 5.249630 18.618800 0.000000 27.070021 1.006274 14.999978
39.646900 217.105000 5.230520 19.440200 0.000000 27.569984 1.010107 14.999978
40.124600 219.501000 5.225750 20.170400 0.000000 28.059978 1.021595 14.999978
40.602200 221.897000 5.235300 20.923300 0.000000 28.550029 1.010107 14.999978
41.079900 224.224000 5.235300 21.881700 0.000000 29.040022 1.012010 14.999978
41.557600 226.848000 5.235300 22.703100 0.000000 29.530016 1.012010 14.999978
42.035200 229.176000 5.235300 23.661400 0.000000 30.020009 1.013935 14.999978
42.512900 231.800000 5.240080 24.482800 0.000000 30.510003 1.012010 14.999978
42.990600 234.195000 5.230520 25.213000 0.000000 30.999996 1.017768 14.999978
43.468300 236.728000 5.211420 26.239700 0.000000 31.500016 1.023526 14.999978
43.945900 238.919000 5.201860 26.924300 0.000000 31.990010 1.019693 14.999978
44.423600 241.451000 5.201860 27.951000 0.000000 32.480003 1.013935 14.999978
44.901300 243.573000 5.192310 28.840900 0.000000 32.969997 1.013935 14.999978
45.379000 246.197000 5.187530 29.662300 0.000000 33.459990 1.008177 14.999978
45.856600 248.388000 5.197080 31.054200 0.000000 33.940014 1.012010 14.999978
46.334300 250.989000 5.201860 31.875600 0.000000 34.430008 1.010107 14.999978
46.812000 253.111000 5.201860 32.765500 0.000000 34.920001 1.010107 14.999978
47.289700 255.644000 5.201860 33.792200 0.000000 35.409995 1.012010 14.999978
47.767300 257.925000 5.187530 34.978700 0.000000 35.910015 1.015843 14.999978
48.245000 260.253000 5.182750 35.937000 0.000000 36.409978 1.025428 14.999978
48.722700 262.580000 5.177980 36.918200 0.000000 36.909998 1.029261 14.999978
49.200300 265.113000 5.177980 37.945000 0.000000 37.399992 1.031187 14.999978
49.678000 267.098000 5.187530 39.268400 0.000000 37.900012 1.031187 14.999978
50.155700 269.653000 5.182750 40.295100 0.000000 38.399975 1.031187 14.999978
50.633400 271.912000 5.173200 41.481600 0.000000 38.899995 1.031187 14.999978
51.111000 273.943000 5.173200 42.599700 0.000000 39.400016 1.029261 14.999978
51.588700 276.430000 5.163650 43.831800 0.000000 39.910005 1.036945 14.999978
52.066400 278.415000 5.173200 45.178000 0.000000 40.410026 1.040772 14.999978
52.544100 280.879000 5.168420 46.410100 0.000000 40.909989 1.036945 14.999978
53.021700 283.207000 5.158870 47.391300 0.000000 41.419978 1.040772 14.999978
53.499400 285.260000 5.168420 48.486500 0.000000 41.919999 1.046513 14.999978
53.977100 287.519000 5.154090 49.673000 0.000000 42.429988 1.052266 14.999978
54.454800 289.641000 5.149320 51.293000 0.000000 42.939978 1.056099 14.999978
54.932400 291.626000 5.144540 52.616400 0.000000 43.450025 1.056099 14.999978
55.410100 293.885000 5.144540 53.802900 0.000000 43.960015 1.050341 14.999978
55.887800 296.076000 5.154090 55.194700 0.000000 44.470005 1.052266 14.999978
56.365400 298.061000 5.154090 56.541000 0.000000 44.979994 1.050341 14.999978
56.843100 300.091000 5.168420 57.636200 0.000000 45.480015 1.046513 14.999978
57.320800 302.282000 5.144540 59.050800 0.000000 45.979978 1.036945 14.999978
57.798500 304.404000 5.144540 60.670900 0.000000 46.479998 1.038847 14.999978
58.276100 306.686000 5.125430 61.834500 0.000000 46.980018 1.038847 14.999978
58.753800 308.648000 5.111100 63.180800 0.000000 47.479981 1.033089 14.999978
59.231500 310.565000 5.120660 64.709500 0.000000 47.980001 1.035020 14.999978
59.709200 312.527000 5.115880 66.055700 0.000000 48.489991 1.036945 14.999978
60.186800 314.672000 5.111100 67.675700 0.000000 48.999981 1.042680 14.999978
60.664500 316.794000 5.115880 69.295800 0.000000 49.510028 1.054191 14.999978
61.142200 318.551000 5.120660 70.550700 0.000000 50.020018 1.056099 14.999978
61.619800 320.741000 5.134990 71.942500 0.000000 50.530007 1.058024 14.999978
62.097500 322.361000 5.111100 73.653800 0.000000 51.039997 1.059932 14.999978
62.575200 324.551000 5.092000 75.045700 0.000000 51.549987 1.056099 14.999978
63.052900 326.400000 5.092000 76.802600 0.000000 52.059977 1.050341 14.999978
63.530500 328.362000 5.077670 78.148800 0.000000 52.570024 1.052266 14.999978
64.008200 330.210000 5.077670 79.905700 0.000000 53.080013 1.054191 14.999978
64.485900 331.899000 5.077670 81.388900 0.000000 53.590003 1.058024 14.999978
64.963600 334.021000 5.087220 83.008900 0.000000 54.110020 1.067592 14.999978
65.441200 335.709000 5.087220 84.492000 0.000000 54.629979 1.069517 14.999978
65.918900 337.626000 5.077670 86.043600 0.000000 55.149995 1.069517 14.999978
66.396600 339.246000 5.082440 87.732000 0.000000 55.659985 1.067592 14.999978
66.874300 341.094000 5.072890 89.489000 0.000000 56.169975 1.059932 14.999978
67.351900 342.919000 5.063340 91.268700 0.000000 56.680022 1.056099 14.999978
67.829600 344.608000 5.053780 92.751800 0.000000 57.190012 1.050341 14.999978
68.307300 346.456000 5.044230 94.508700 0.000000 57.689974 1.050341 14.999978
68.784900 348.144000 5.039450 95.991800 0.000000 58.199907 1.050341 14.999978
69.262600 349.924000 5.053780 97.976900 0.000000 58.709839 1.054191 14.999978
69.740300 351.841000 5.034680 99.528500 0.000000 59.219772 1.052266 14.999978
70.218000 353.461000 5.049010 101.217000 0.000000 59.730277 1.052266 14.999978
70.695600 355.081000 5.068110 102.928000 0.000000 60.240210 1.050341 14.999978
71.173300 356.632000 5.072890 104.845000 0.000000 60.739829 1.046513 14.999978
71.651000 358.252000 5.063340 106.533000 0.000000 61.240021 1.040772 14.999978
72.128700 359.804000 5.044230 108.450000 0.000000 61.740213 1.035020 14.999978
72.606300 361.492000 5.039450 109.933000 0.000000 62.230092 1.025428 14.999978
73.084000 363.044000 5.034680 111.850000 0.000000 62.730284 1.021595 14.999978
73.561700 364.459000 5.029900 113.493000 0.000000 63.220163 1.019693 14.999978
74.039400 365.942000 5.010790 115.615000 0.000000 63.710042 1.019693 14.999978
74.517000 367.858000 5.034680 117.166000 0.000000 64.210234 1.021595 14.999978
74.994700 369.182000 5.029900 119.014000 0.000000 64.709853 1.029261 14.999978
75.472400 370.665000 5.029900 121.159000 0.000000 65.210046 1.033089 14.999978
75.950000 372.080000 5.039450 122.779000 0.000000 65.719978 1.036945 14.999978
76.427700 373.426000 5.029900 124.627000 0.000000 66.220170 1.042680 14.999978
76.905400 374.909000 5.025120 126.772000 0.000000 66.719789 1.044605 14.999978
77.383100 376.301000 5.001240 128.392000 0.000000 67.229722 1.038847 14.999978
77.860700 377.807000 4.996460 130.537000 0.000000 67.729914 1.038847 14.999978
78.338400 379.358000 4.996460 132.454000 0.000000 68.230106 1.038847 14.999978
78.816100 380.476000 4.996460 134.233000 0.000000 68.729725 1.042680 14.999978
79.293800 381.959000 4.991690 136.378000 0.000000 69.229917 1.038847 14.999978
79.771400 383.579000 4.982130 138.067000 0.000000 69.730110 1.033089 14.999978
80.249100 384.424000 4.996460 140.006000 0.000000 70.229729 1.035020 14.999978
80.726800 385.907000 4.996460 142.128000 0.000000 70.740234 1.035020 14.999978
81.204500 387.230000 4.991690 143.976000 0.000000 71.239853 1.040772 14.999978
81.682100 388.280000 4.977360 145.984000 0.000000 71.740046 1.038847 14.999978
82.159800 389.558000 4.972580 148.038000 0.000000 72.240238 1.036945 14.999978
82.637500 391.109000 4.953470 149.954000 0.000000 72.739857 1.029261 14.999978
83.115100 391.953000 4.958250 151.894000 0.000000 73.229736 1.023526 14.999978
83.592800 393.437000 4.958250 154.039000 0.000000 73.720188 1.025428 14.999978
84.070500 394.418000 4.953470 156.252000 0.000000 74.210067 1.015843 14.999978
84.548200 395.536000 4.958250 158.032000 0.000000 74.710259 1.013935 14.999978
85.025800 396.517000 4.972580 160.245000 0.000000 75.200138 1.015843 14.999978
85.503500 397.795000 4.977360 162.321000 0.000000 75.690017 1.015843 14.999978
85.981200 398.913000 4.967800 164.101000 0.000000 76.190209 1.019693 14.999978
86.458900 399.894000 4.953470 166.314000 0.000000 76.680088 1.025428 14.999978
86.936500 400.943000 4.953470 168.322000 0.000000 77.180280 1.027353 14.999978
87.414200 401.925000 4.953470 170.536000 0.000000 77.690212 1.035020 14.999978
87.891900 403.043000 4.948690 172.315000 0.000000 78.189831 1.046513 14.999978
88.369600 404.320000 4.953470 174.369000 0.000000 78.690024 1.040772 14.999978
88.847200 404.868000 4.943920 176.468000 0.000000 79.190216 1.035020 14.999978
89.324900 405.849000 4.948690 178.681000 0.000000 79.680095 1.031187 14.999978
89.802600 407.104000 4.958250 180.735000 0.000000 80.169974 1.012010 14.999978
90.280200 408.154000 4.963030 182.743000 0.000000 80.650112 0.996683 14.999978
90.757900 408.656000 4.958250 185.047000 0.000000 81.130251 0.992856 14.999978
91.235600 409.637000 4.939140 187.261000 0.000000 81.609817 0.992856 14.999978
91.713300 410.618000 4.929590 189.474000 0.000000 82.089955 0.994758 14.999978
92.190900 411.234000 4.920030 191.345000 0.000000 82.570094 0.998591 14.999978
92.668600 412.215000 4.915260 193.558000 0.000000 83.050232 1.002441 14.999978
93.146300 413.196000 4.924810 195.771000 0.000000 83.509745 1.000516 14.999978
93.624000 413.949000 4.934360 197.916000 0.000000 83.969830 0.998591 14.999978
94.101600 414.565000 4.920030 199.787000 0.000000 84.440228 0.996683 14.999978
94.579300 415.341000 4.929590 201.932000 0.000000 84.899740 0.992856 14.999978
95.057000 416.254000 4.934360 204.373000 0.000000 85.359825 1.000516 14.999978
95.534600 417.029000 4.920030 206.518000 0.000000 85.810170 0.998591 14.999978
96.012300 417.577000 4.905700 208.595000 0.000000 86.270255 1.008177 14.999978
96.490000 418.330000 4.905700 210.762000 0.000000 86.720027 1.013935 14.999978
96.967700 419.106000 4.910480 212.907000 0.000000 87.160059 1.012010 14.999978
97.445300 419.859000 4.910480 215.052000 0.000000 87.609831 1.017768 14.999978
97.923000 420.338000 4.905700 217.356000 0.000000 88.060175 1.013935 14.999978
98.400700 420.886000 4.910480 219.433000 0.000000 88.509947 1.004349 14.999978
98.878400 421.593000 4.915260 221.806000 0.000000 88.959719 1.006274 14.999978
99.356000 422.141000 4.929590 223.882000 0.000000 89.410064 1.006274 14.999978
99.833700 422.620000 4.934360 226.187000 0.000000 89.870149 1.002441 14.999978
100.311000 423.167000 4.920030 228.263000 0.000000 90.330234 1.002441 14.999978
100.789000 423.715000 4.910480 230.339000 0.000000 90.789746 1.000516 14.999978
101.267000 424.194000 4.900930 232.644000 0.000000 91.249831 0.994758 14.999978
101.744000 424.742000 4.896150 234.720000 0.000000 91.709917 0.989023 14.999978
102.222000 425.221000 4.896150 237.025000 0.000000 92.170002 0.987097 14.999978
102.700000 425.700000 4.900930 239.329000 0.000000 92.630087 0.981339 14.999978
103.177000 425.974000 4.900930 241.565000 0.000000 93.090172 0.977512 14.999978
103.655000 426.453000 4.915260 243.847000 0.000000 93.559997 0.983264 14.999978
104.133000 426.772000 4.929590 245.878000 0.000000 94.029823 0.989023 14.999978
104.610000 427.252000 4.929590 248.160000 0.000000 94.500221 0.992856 14.999978
105.088000 427.594000 4.920030 250.190000 0.000000 94.970046 0.994758 14.999978
105.566000 428.073000 4.900930 252.472000 0.000000 95.450185 0.998591 14.999978
106.043000 428.324000 4.891370 254.708000 0.000000 95.920010 0.994758 14.999978
106.521000 428.803000 4.896150 257.013000 0.000000 96.400149 0.998591 14.999978
106.999000 428.849000 4.872270 259.180000 0.000000 96.869974 0.992856 14.999978
107.476000 429.123000 4.877040 261.416000 0.000000 97.350113 0.994758 14.999978
107.954000 429.374000 4.891370 263.652000 0.000000 97.830252 1.000516 14.999978
108.432000 429.853000 4.905700 265.934000 0.000000 98.300077 0.994758 14.999978
108.910000 429.830000 4.910480 268.330000 0.000000 98.780216 0.990931 14.999978
109.387000 430.172000 4.905700 270.338000 0.000000 99.250041 0.987097 14.999978
109.865000 430.218000 4.891370 272.505000 0.000000 99.710126 0.981339 14.999978
110.343000 430.469000 4.881820 274.742000 0.000000 100.170211 0.983264 14.999978
110.820000 430.514000 4.877040 276.909000 0.000000 100.619983 0.979437 14.999978
111.298000 430.788000 4.881820 279.122000 0.000000 101.060015 0.977512 14.999978
111.776000 430.971000 4.872270 281.587000 0.000000 101.509787 0.981339 14.999978
112.253000 431.016000 4.862710 283.754000 0.000000 101.940078 0.981339 14.999978
112.731000 430.834000 4.867490 285.831000 0.000000 102.380110 0.979437 14.999978
113.209000 430.879000 4.881820 287.998000 0.000000 102.809828 0.981339 14.999978
113.686000 430.857000 4.881820 290.394000 0.000000 103.249859 0.987097 14.999978
114.164000 430.902000 4.896150 292.562000 0.000000 103.680151 0.985189 14.999978
114.642000 430.948000 4.881820 294.707000 0.000000 104.100129 0.985189 14.999978
115.119000 430.925000 4.862710 297.102000 0.000000 104.520107 0.975604 14.999978
115.597000 430.971000 4.862710 299.270000 0.000000 104.940085 0.969846 14.999978
116.075000 431.085000 4.848380 301.210000 0.000000 105.349750 0.966018 14.999978
116.552000 430.629000 4.853160 303.446000 0.000000 105.759988 0.969846 14.999978
117.030000 430.674000 4.843610 305.613000 0.000000 106.170225 0.967943 14.999978
117.508000 430.492000 4.853160 307.712000 0.000000 106.590203 0.966018 14.999978
117.985000 430.469000 4.872270 310.085000 0.000000 106.990128 0.967943 14.999978
118.463000 430.309000 4.872270 312.185000 0.000000 107.399793 0.962185 14.999978
118.941000 430.127000 4.872270 314.284000 0.000000 107.810031 0.964087 14.999978
119.418000 429.876000 4.857940 316.611000 0.000000 108.220268 0.966018 14.999978
119.896000 429.853000 4.857940 318.984000 0.000000 108.629933 0.967943 14.999978
120.374000 429.693000 4.862710 321.083000 0.000000 109.040171 0.967943 14.999978
120.851000 429.510000 4.848380 323.182000 0.000000 109.440095 0.962185 14.999978
121.329000 428.986000 4.857940 325.647000 0.000000 109.830280 0.950692 14.999978
